0 	0.000387149 	0 	-0.0664801
0.00184055 	0.000524705 	1.0426e-06 	-0.0664783
0.00368111 	0.000728408 	2.57416e-06 	-0.0664772
0.00558849 	0.00150168 	1.06767e-05 	-0.0664727
0.00749587 	0.00249226 	2.03715e-05 	-0.0664705
0.00947248 	0.00356087 	3.82731e-05 	-0.0664645
0.0114491 	0.00475218 	5.73878e-05 	-0.0664624
0.0134975 	0.0053909 	7.93763e-05 	-0.0664564
0.0155459 	0.00592049 	0.000101732 	-0.0664563
0.0176687 	0.00621028 	0.000124483 	-0.0664529
0.0197915 	0.00633352 	0.000149367 	-0.0664575
0.0219913 	0.00643587 	0.000172927 	-0.0664585
0.0241911 	0.00638358 	0.000202131 	-0.0664695
0.0264709 	0.00638629 	0.000227499 	-0.0664754
0.0287506 	0.00627572 	0.000262614 	-0.0664936
0.031113 	0.00622875 	0.000290859 	-0.0665048
0.0334755 	0.00611506 	0.000332314 	-0.0665302
0.0359238 	0.00604726 	0.000364083 	-0.0665461
0.038372 	0.00595213 	0.000411059 	-0.0665779
0.038372 	0.00595213 	0.000411059 	-0.0665779
0.0409091 	0.00587886 	0.000446555 	-0.0665981
0.0409092 	0.00587886 	0.000446555 	-0.0665981
0.0434463 	0.0058074 	0.000497759 	-0.0666356
0.0434463 	0.0058074 	0.000497759 	-0.0666356
0.0460755 	0.00573608 	0.000536701 	-0.0666598
0.0460756 	0.00573608 	0.000536701 	-0.0666598
0.0487048 	0.00568645 	0.000590434 	-0.0667024
0.0487048 	0.00568645 	0.000590434 	-0.0667024
0.0514295 	0.00562091 	0.000632326 	-0.0667301
0.0514296 	0.00562091 	0.000632326 	-0.0667301
0.0541543 	0.00558938 	0.000686639 	-0.0667767
0.0541543 	0.00558938 	0.000686639 	-0.0667767
0.0569779 	0.00553197 	0.000730665 	-0.0668073
0.0598016 	0.00551485 	0.000783857 	-0.0668568
0.0627277 	0.005467 	0.00082828 	-0.06689
0.0656539 	0.00546102 	0.000878663 	-0.0669414
0.0686863 	0.00542327 	0.000920897 	-0.0669771
0.0717187 	0.00542562 	0.00096699 	-0.0670298
0.0739617 	0.00540568 	0.000994531 	-0.0670567
0.0762047 	0.00539598 	0.00102275 	-0.0670881
0.0771042 	0.005401 	0.00103465 	-0.0671045
0.0780037 	0.00540603 	0.00104655 	-0.0671209
0.0808939 	0.00538928 	0.00107765 	-0.0671553
0.0837842 	0.00539495 	0.0011092 	-0.0672004
0.0841505 	0.00539723 	0.00111323 	-0.0672068
0.0845169 	0.00539951 	0.00111726 	-0.0672133
0.0878917 	0.00538857 	0.00114873 	-0.0672524
0.0912666 	0.00540317 	0.00117924 	-0.0673059
0.0947639 	0.00539869 	0.00120699 	-0.0673447
0.0982613 	0.00541399 	0.00123275 	-0.0673981
0.101886 	0.00541436 	0.00125681 	-0.0674362
0.10551 	0.00542906 	0.00127835 	-0.0674894
0.108191 	0.00543165 	0.00129297 	-0.0675158
0.110872 	0.00543692 	0.00130686 	-0.0675466
0.111947 	0.00544135 	0.0013118 	-0.0675628
0.113022 	0.00544578 	0.00131674 	-0.067579
0.116476 	0.00545049 	0.00133207 	-0.0676105
0.11993 	0.0054591 	0.00134573 	-0.0676538
0.120368 	0.00546047 	0.00134735 	-0.0676601
0.120806 	0.00546183 	0.00134896 	-0.0676664
0.12484 	0.00546736 	0.00136364 	-0.0676998
0.128874 	0.00547533 	0.00137634 	-0.0677511
0.133054 	0.00548 	0.001389 	-0.067782
0.137234 	0.00548507 	0.00140013 	-0.0678324
0.141565 	0.00548837 	0.00141137 	-0.0678605
0.145897 	0.00549085 	0.00142163 	-0.06791
0.150386 	0.0054929 	0.00143227 	-0.0679349
0.154876 	0.00549348 	0.0014425 	-0.0679832
0.159528 	0.00549492 	0.00145332 	-0.0680045
0.16418 	0.00549456 	0.00146429 	-0.0680518
0.169001 	0.0054962 	0.00147607 	-0.0680692
0.173822 	0.00549584 	0.00148836 	-0.0681157
0.178818 	0.00549813 	0.00150195 	-0.068129
0.183814 	0.00549843 	0.00151604 	-0.0681751
0.188991 	0.00550111 	0.00153194 	-0.0681844
0.194169 	0.00550221 	0.00154821 	-0.0682306
0.197999 	0.0055035 	0.00156147 	-0.0682346
0.201828 	0.00550467 	0.00157479 	-0.0682502
0.203364 	0.00550504 	0.00158019 	-0.0682666
0.2049 	0.00550541 	0.00158559 	-0.068283
0.209834 	0.00550423 	0.0016047 	-0.0682849
0.214769 	0.00550437 	0.00162377 	-0.0683197
0.215394 	0.00550448 	0.00162618 	-0.0683264
0.21602 	0.00550459 	0.00162859 	-0.0683331
0.221782 	0.0054974 	0.00165326 	-0.0683329
0.227544 	0.00549558 	0.00167728 	-0.068383
0.231806 	0.00548435 	0.00169731 	-0.068382
0.236068 	0.00547602 	0.00171696 	-0.0683965
0.237778 	0.0054752 	0.00172451 	-0.0684158
0.239487 	0.00547438 	0.00173206 	-0.0684352
0.244979 	0.0054511 	0.00176057 	-0.0684344
0.250471 	0.00543951 	0.00178757 	-0.0684765
0.251167 	0.00543886 	0.00179089 	-0.0684848
0.251863 	0.00543821 	0.00179421 	-0.0684931
0.252584 	0.00543399 	0.00179838 	-0.0684932
0.253306 	0.00542977 	0.00180255 	-0.0684934
0.258997 	0.00539649 	0.00183543 	-0.0684946
0.264688 	0.00538616 	0.00186507 	-0.0685597
0.27096 	0.00534089 	0.00190581 	-0.0685644
0.277232 	0.00532089 	0.00194217 	-0.0686273
0.277606 	0.00532027 	0.00194424 	-0.0686324
0.27798 	0.00531965 	0.0019463 	-0.0686375
0.284867 	0.0052637 	0.00199721 	-0.0686471
0.291753 	0.00524252 	0.00204035 	-0.0687276
0.29889 	0.0051825 	0.00210047 	-0.0687429
0.306027 	0.00516061 	0.00214937 	-0.0688308
0.311306 	0.00511805 	0.0021999 	-0.0688463
0.316585 	0.00508653 	0.00224603 	-0.0688825
0.318702 	0.00508351 	0.00226069 	-0.0689151
0.320819 	0.00508048 	0.00227536 	-0.0689476
0.327621 	0.00503145 	0.00234973 	-0.0689729
0.334423 	0.00500963 	0.00240884 	-0.0690507
0.335286 	0.00500876 	0.00241527 	-0.0690642
0.336148 	0.00500789 	0.0024217 	-0.0690777
0.344091 	0.0049599 	0.0025215 	-0.069113
0.352034 	0.00494695 	0.00259224 	-0.0692205
0.360265 	0.00490786 	0.00270983 	-0.0692622
0.368496 	0.00489992 	0.00278882 	-0.0693747
0.374585 	0.00487877 	0.00288468 	-0.0694087
0.380674 	0.00486513 	0.00296694 	-0.0694622
0.383115 	0.00486619 	0.00298807 	-0.0695006
0.385557 	0.00486725 	0.00300919 	-0.0695389
0.393402 	0.00484906 	0.00313997 	-0.0695861
0.401247 	0.00484629 	0.00323031 	-0.0696811
0.402242 	0.00484702 	0.00323894 	-0.0696964
0.403236 	0.00484774 	0.00324758 	-0.0697118
0.403236 	0.00484774 	0.00324758 	-0.0697118
0.412396 	0.00483528 	0.00340312 	-0.0697698
0.421557 	0.00483904 	0.003497 	-0.0698921
0.43105 	0.00483312 	0.00365462 	-0.0699544
0.440544 	0.00483822 	0.00374863 	-0.0700781
0.450382 	0.00483733 	0.00390088 	-0.0701436
0.46022 	0.00484244 	0.00399225 	-0.0702673
0.470415 	0.00484528 	0.00413216 	-0.0703348
0.48061 	0.0048492 	0.00421851 	-0.0704565
0.491175 	0.00485475 	0.0043422 	-0.0705245
0.501741 	0.00485643 	0.00442237 	-0.0706419
0.509556 	0.00486173 	0.00449986 	-0.0706895
0.517371 	0.00486451 	0.00456791 	-0.0707494
0.520505 	0.00486343 	0.00458699 	-0.0707841
0.523639 	0.00486235 	0.00460606 	-0.0708187
0.533709 	0.00487002 	0.00469145 	-0.0708755
0.543779 	0.00486751 	0.00475915 	-0.0709578
0.545056 	0.00486648 	0.0047665 	-0.07097
0.546332 	0.00486545 	0.00477384 	-0.0709822
0.558091 	0.00487477 	0.0048597 	-0.0710419
0.569849 	0.00486474 	0.00492864 	-0.0711275
0.582034 	0.00487426 	0.00500578 	-0.0711807
0.594219 	0.00485958 	0.00507264 	-0.071249
0.606847 	0.00486882 	0.00514193 	-0.0712936
0.619475 	0.00484933 	0.00520672 	-0.071341
0.630287 	0.00485642 	0.00525917 	-0.0713686
0.6411 	0.00484488 	0.00531193 	-0.0713902
0.643373 	0.00483917 	0.00532308 	-0.0713936
0.645647 	0.00483347 	0.00533422 	-0.0713971
0.656157 	0.00483951 	0.00538165 	-0.0714122
0.666667 	0.00482946 	0.00543113 	-0.0714161
0.669719 	0.00482081 	0.00544623 	-0.0714132
0.67277 	0.00481215 	0.00546133 	-0.0714102
0.686823 	0.00481934 	0.00552175 	-0.0714134
0.700877 	0.00478669 	0.0055908 	-0.0713741
0.715441 	0.00479382 	0.005651 	-0.0713583
0.730005 	0.00475965 	0.00572439 	-0.0712825
0.742475 	0.00476599 	0.0057744 	-0.0712516
0.754946 	0.00474918 	0.00583449 	-0.0711768
0.757568 	0.00474158 	0.0058489 	-0.0711534
0.76019 	0.00473397 	0.0058633 	-0.0711299
0.772312 	0.00474071 	0.00590987 	-0.0710828
0.784434 	0.00473041 	0.00596592 	-0.0709937
0.787953 	0.00472133 	0.00598558 	-0.0709528
0.791472 	0.00471225 	0.00600524 	-0.0709119
0.80768 	0.00472214 	0.00606483 	-0.0708258
0.823889 	0.00469647 	0.00615022 	-0.0706238
0.840686 	0.00470734 	0.00621016 	-0.0705106
0.857483 	0.00468759 	0.00629951 	-0.0702609
0.87489 	0.00469887 	0.00636229 	-0.070119
0.892297 	0.00468519 	0.0064536 	-0.0698191
0.910336 	0.0046962 	0.0065205 	-0.0696467
0.928375 	0.00468787 	0.00661252 	-0.0692952
0.947068 	0.00469787 	0.0066816 	-0.0690903
0.965762 	0.00469362 	0.00677347 	-0.0686873
0.985136 	0.00470197 	0.00684256 	-0.0684478
1.00451 	0.00470033 	0.00693059 	-0.0679941
1.02458 	0.00470644 	0.00699877 	-0.0677182
1.04466 	0.00470602 	0.00707589 	-0.0672147
1.06546 	0.00470952 	0.00714377 	-0.0669008
1.08627 	0.00470904 	0.00720275 	-0.0663482
1.10783 	0.00470969 	0.00727268 	-0.0659957
1.12939 	0.00470813 	0.0073129 	-0.0653948
1.15173 	0.00470546 	0.00738865 	-0.0650035
1.17408 	0.00470167 	0.00741535 	-0.0643553
1.19723 	0.00469519 	0.00750275 	-0.0639257
1.22038 	0.00468796 	0.00752917 	-0.0632304
1.24437 	0.00467768 	0.00763379 	-0.062764
1.26837 	0.004666 	0.00767927 	-0.0620215
1.29323 	0.00465219 	0.00780195 	-0.0615215
1.3181 	0.00463522 	0.00787912 	-0.0607337
1.34387 	0.00461835 	0.00801886 	-0.0602042
1.36964 	0.00459603 	0.00813054 	-0.0593762
1.36964 	0.00459603 	0.00813054 	-0.0593762
1.39634 	0.00457675 	0.00828754 	-0.0588218
1.39634 	0.00457675 	0.00828754 	-0.0588218
1.42305 	0.00455025 	0.00843082 	-0.0579614
1.42305 	0.00455025 	0.00843082 	-0.0579614
1.45072 	0.00452913 	0.00860699 	-0.0573861
1.4784 	0.00450012 	0.00877643 	-0.056502
1.50708 	0.00447763 	0.00897575 	-0.0559092
1.53576 	0.00444754 	0.00916754 	-0.0550087
1.56548 	0.0044241 	0.00939484 	-0.0544014
1.5952 	0.00439381 	0.0096095 	-0.0534907
1.5952 	0.00439381 	0.0096095 	-0.0534907
1.626 	0.00436983 	0.00986862 	-0.0528715
1.626 	0.00436983 	0.00986862 	-0.0528715
1.65679 	0.00433983 	0.0101091 	-0.0519558
1.65679 	0.00433983 	0.0101091 	-0.0519558
1.68871 	0.00431569 	0.0104022 	-0.0513275
1.68871 	0.00431569 	0.0104022 	-0.0513275
1.72063 	0.00428631 	0.010672 	-0.0504113
1.72063 	0.00428631 	0.010672 	-0.0504113
1.75371 	0.00426228 	0.0110017 	-0.0497769
1.75371 	0.00426228 	0.0110017 	-0.0497769
1.78678 	0.00423374 	0.0113049 	-0.0488647
1.78678 	0.00423374 	0.0113049 	-0.0488647
1.82106 	0.00421001 	0.0116763 	-0.0482275
1.85533 	0.00418242 	0.0120185 	-0.0473235
1.89086 	0.00415916 	0.012437 	-0.0466868
1.92638 	0.0041326 	0.0128235 	-0.0457953
1.96319 	0.00411016 	0.0132844 	-0.0451701
2 	0.00408489 	0.0137136 	-0.0443054
