0 	0 	0 	0
0.00184056 	0.064546 	4.69713e-05 	0.00247889
0.00368111 	0.133883 	0.000100143 	0.00363496
0.00558849 	0.193214 	0.00020184 	0.00758304
0.00749587 	0.256088 	0.000304182 	0.011185
0.00947249 	0.303072 	0.000451343 	0.0159955
0.0114491 	0.351571 	0.000590986 	0.0210693
0.0121669 	0.363102 	0.000652056 	0.02266
0.0128847 	0.374632 	0.000713126 	0.0242508
0.0142153 	0.396164 	0.000812337 	0.0275962
0.0155459 	0.417696 	0.000911548 	0.0309416
0.0176687 	0.44075 	0.00108814 	0.0352072
0.0197915 	0.463566 	0.00124339 	0.0398761
0.0219913 	0.480543 	0.00142914 	0.0437228
0.0241911 	0.497246 	0.00159088 	0.0479178
0.0264709 	0.510422 	0.0017862 	0.0514353
0.0287506 	0.523387 	0.00195717 	0.0552508
0.0311131 	0.534068 	0.00216265 	0.0585137
0.0334755 	0.54461 	0.0023446 	0.0620326
0.0359238 	0.553585 	0.00256107 	0.0650973
0.038372 	0.562478 	0.00275545 	0.0683828
0.0397056 	0.566571 	0.0028801 	0.0698696
0.0410393 	0.570644 	0.00299456 	0.0714516
0.0422428 	0.574309 	0.00309326 	0.0729221
0.0434463 	0.577975 	0.00319196 	0.0743926
0.0460756 	0.584871 	0.00343329 	0.0771809
0.0487048 	0.591747 	0.00365612 	0.0801315
0.0514296 	0.598 	0.0039112 	0.0828242
0.0541543 	0.604238 	0.0041497 	0.0856529
0.056978 	0.61001 	0.00441933 	0.0882699
0.0598016 	0.615758 	0.00467427 	0.0909979
0.0627278 	0.621169 	0.00495909 	0.0935556
0.0656539 	0.626532 	0.00523087 	0.0962
0.0686863 	0.631669 	0.00553133 	0.0987118
0.0717187 	0.636726 	0.00582016 	0.101287
0.0748612 	0.641655 	0.00613656 	0.103764
0.0780037 	0.646462 	0.00644249 	0.106282
0.0791449 	0.64816 	0.00656042 	0.107138
0.0802861 	0.649858 	0.00667835 	0.107995
0.0824015 	0.652846 	0.00688802 	0.109601
0.0845169 	0.655834 	0.00709768 	0.111207
0.0878918 	0.660488 	0.00744598 	0.113645
0.0912666 	0.664915 	0.00778497 	0.116083
0.094764 	0.669485 	0.00814877 	0.118515
0.0982613 	0.673767 	0.00850304 	0.12093
0.101886 	0.678278 	0.00888179 	0.123365
0.10551 	0.682438 	0.00925037 	0.125769
0.109266 	0.686912 	0.00964329 	0.128218
0.113022 	0.690973 	0.0100251 	0.130624
0.116914 	0.695429 	0.0104312 	0.133096
0.120806 	0.699412 	0.0108251 	0.135518
0.12484 	0.703869 	0.0112434 	0.138023
0.128874 	0.707794 	0.011648 	0.140476
0.131071 	0.710277 	0.0118769 	0.141827
0.133268 	0.712467 	0.0120983 	0.143153
0.135251 	0.714313 	0.0122946 	0.144338
0.137234 	0.716158 	0.012491 	0.145523
0.141565 	0.720665 	0.0129292 	0.148125
0.145897 	0.724544 	0.0133512 	0.150683
0.150386 	0.729101 	0.0137968 	0.153348
0.154876 	0.732996 	0.0142254 	0.15598
0.159528 	0.737622 	0.0146766 	0.158718
0.16418 	0.741561 	0.0151107 	0.161436
0.169001 	0.746275 	0.0155658 	0.164255
0.173822 	0.750289 	0.0160049 	0.16707
0.178818 	0.755111 	0.0164622 	0.169976
0.183814 	0.759235 	0.0169055 	0.172897
0.188991 	0.764189 	0.0173632 	0.175893
0.194169 	0.768463 	0.0178103 	0.178927
0.199534 	0.773576 	0.0182669 	0.182018
0.2049 	0.778038 	0.0187178 	0.185168
0.2049 	0.778038 	0.0187178 	0.185168
0.21046 	0.783336 	0.019172 	0.188354
0.21602 	0.78802 	0.0196265 	0.191618
0.221782 	0.793526 	0.0200767 	0.194894
0.227544 	0.798464 	0.0205347 	0.198268
0.233516 	0.804201 	0.0209799 	0.201628
0.239487 	0.809425 	0.0214413 	0.205102
0.241655 	0.811592 	0.0215915 	0.206287
0.243824 	0.813759 	0.0217416 	0.207473
0.247843 	0.817357 	0.0220435 	0.209788
0.251863 	0.820956 	0.0223454 	0.212104
0.258276 	0.827216 	0.022778 	0.215604
0.264688 	0.833088 	0.0232456 	0.219242
0.267017 	0.835422 	0.0233875 	0.220461
0.269346 	0.837756 	0.0235295 	0.22168
0.273663 	0.841776 	0.0238338 	0.22407
0.27798 	0.845795 	0.0241382 	0.22646
0.280217 	0.84802 	0.0242646 	0.22759
0.282453 	0.850245 	0.024391 	0.22872
0.287103 	0.854616 	0.0247018 	0.231188
0.291753 	0.858965 	0.0250165 	0.233665
0.29889 	0.865795 	0.0254114 	0.237139
0.306027 	0.872378 	0.0258695 	0.240733
0.313423 	0.879152 	0.0262402 	0.244073
0.320819 	0.885723 	0.0266822 	0.247518
0.328484 	0.892263 	0.0270204 	0.250653
0.336148 	0.898654 	0.0274362 	0.253881
0.344091 	0.904802 	0.027733 	0.256755
0.352034 	0.91086 	0.0281114 	0.259716
0.360265 	0.916492 	0.0283584 	0.262295
0.368496 	0.922092 	0.0286875 	0.264956
0.377026 	0.927126 	0.0288777 	0.267227
0.385557 	0.932183 	0.0291471 	0.269579
0.394396 	0.936588 	0.0292771 	0.271553
0.403236 	0.941065 	0.0294799 	0.273607
0.409878 	0.943789 	0.0295131 	0.274822
0.41652 	0.946622 	0.0296095 	0.276118
0.419039 	0.947697 	0.0296461 	0.276609
0.421557 	0.948771 	0.0296827 	0.277101
0.431051 	0.952018 	0.029694 	0.278578
0.440544 	0.955397 	0.0297564 	0.280136
0.450382 	0.958152 	0.0297116 	0.28142
0.46022 	0.961052 	0.0297038 	0.28278
0.470415 	0.963373 	0.0296051 	0.283898
0.48061 	0.965846 	0.0295287 	0.285089
0.491176 	0.967789 	0.0293786 	0.286063
0.501741 	0.969887 	0.0292359 	0.287107
0.51269 	0.971511 	0.0290372 	0.287956
0.523639 	0.97329 	0.0288311 	0.288872
0.534986 	0.97465 	0.028587 	0.289615
0.546332 	0.976162 	0.0283206 	0.29042
0.546332 	0.976162 	0.0283206 	0.29042
0.558091 	0.977308 	0.0280343 	0.291075
0.569849 	0.9786 	0.0277109 	0.291785
0.582034 	0.979571 	0.0273855 	0.292363
0.594219 	0.98068 	0.0270083 	0.292991
0.606847 	0.981506 	0.0266469 	0.293505
0.619475 	0.982461 	0.0262194 	0.294061
0.632561 	0.983166 	0.0258249 	0.294518
0.645647 	0.98399 	0.0253507 	0.29501
0.648361 	0.984101 	0.0252735 	0.295089
0.651074 	0.984213 	0.0251964 	0.295169
0.661922 	0.984734 	0.0248224 	0.295505
0.67277 	0.985301 	0.0244088 	0.295853
0.675587 	0.985395 	0.0243269 	0.295925
0.678403 	0.985489 	0.024245 	0.295996
0.68964 	0.985933 	0.023845 	0.296295
0.700877 	0.986418 	0.0234009 	0.296604
0.715441 	0.986849 	0.0229232 	0.29693
0.730005 	0.987363 	0.0223339 	0.297272
0.745097 	0.987723 	0.0218328 	0.297565
0.76019 	0.988153 	0.021214 	0.297868
0.769963 	0.988323 	0.0209197 	0.29803
0.779737 	0.988539 	0.0205302 	0.298196
0.785604 	0.988673 	0.0202884 	0.298296
0.791472 	0.988807 	0.0200466 	0.298396
0.804179 	0.988983 	0.019647 	0.298576
0.816886 	0.98921 	0.0191239 	0.298756
0.820388 	0.989273 	0.0189797 	0.298805
0.823889 	0.989336 	0.0188355 	0.298855
0.840686 	0.98952 	0.0182718 	0.299051
0.857483 	0.98975 	0.0175841 	0.299239
0.87489 	0.989883 	0.0170016 	0.2994
0.892297 	0.990057 	0.0162964 	0.299545
0.910336 	0.990144 	0.015697 	0.29967
0.928375 	0.990268 	0.0149776 	0.299769
0.947068 	0.990314 	0.0143637 	0.299858
0.965762 	0.990395 	0.0136337 	0.299911
0.985136 	0.990407 	0.0130081 	0.299963
1.00451 	0.990454 	0.0122709 	0.29997
1.02459 	0.990438 	0.0116363 	0.299984
1.04466 	0.990456 	0.0108954 	0.299944
1.06547 	0.990418 	0.0102547 	0.299919
1.08627 	0.990413 	0.00951293 	0.299831
1.08627 	0.990413 	0.00951293 	0.299831
1.10783 	0.990358 	0.00886926 	0.299764
1.12939 	0.990338 	0.00812964 	0.299626
1.15173 	0.990271 	0.00748626 	0.299518
1.17408 	0.990241 	0.00675208 	0.299328
1.19723 	0.990168 	0.00611257 	0.299177
1.22038 	0.990136 	0.00538751 	0.298933
1.24437 	0.990062 	0.00475581 	0.298738
1.26837 	0.990032 	0.00404443 	0.298441
1.29323 	0.989961 	0.00342514 	0.298202
1.3181 	0.989939 	0.00273346 	0.29785
1.34387 	0.989873 	0.00213168 	0.297569
1.36964 	0.989863 	0.00146682 	0.297165
1.39634 	0.989804 	0.000887635 	0.296844
1.42305 	0.989804 	0.000256656 	0.296392
1.42616 	0.989796 	0.000196444 	0.296358
1.42928 	0.989787 	0.000136231 	0.296324
1.45384 	0.989756 	-0.000361768 	0.295977
1.4784 	0.989766 	-0.000886338 	0.295538
1.48522 	0.989751 	-0.00100758 	0.295458
1.49205 	0.989735 	-0.00112883 	0.295378
1.5139 	0.989732 	-0.00153687 	0.295016
1.53576 	0.98975 	-0.00195316 	0.294609
1.56548 	0.989721 	-0.00243881 	0.294181
1.5952 	0.989757 	-0.00293637 	0.293613
1.61292 	0.98973 	-0.00319444 	0.293385
1.63064 	0.989747 	-0.00345139 	0.293066
1.64372 	0.989767 	-0.00364074 	0.292813
1.65679 	0.989788 	-0.0038301 	0.292559
1.68153 	0.989767 	-0.00414914 	0.292216
1.70627 	0.989814 	-0.00445331 	0.291734
1.71345 	0.989827 	-0.00454161 	0.291594
1.72063 	0.989841 	-0.00462992 	0.291454
1.75371 	0.989843 	-0.00499483 	0.290948
1.78678 	0.989914 	-0.00533255 	0.290306
1.82106 	0.989924 	-0.00565359 	0.289781
1.85533 	0.990002 	-0.00593609 	0.289125
1.89086 	0.990019 	-0.00621242 	0.288587
1.92638 	0.990101 	-0.00643999 	0.287922
1.96319 	0.990126 	-0.00666889 	0.287384
2 	0.99021 	-0.00684079 	0.286725
2 	0.99021 	-0.00684079 	0.286725
2.03636 	0.990241 	-0.00702353 	0.286194
2.07273 	0.990325 	-0.00714235 	0.285548
