0 	0 	0 	0
0.00184055 	0.0586242 	4.9919e-05 	0.00733736
0.00368111 	0.118262 	0.000116203 	0.0127356
0.00558849 	0.172883 	0.000220633 	0.021113
0.00749587 	0.227824 	0.000349673 	0.0283028
0.00947248 	0.271888 	0.000512068 	0.0366364
0.0114491 	0.315568 	0.000709489 	0.0445059
0.0121669 	0.326708 	0.000777661 	0.0470104
0.0128847 	0.337849 	0.000845833 	0.0495149
0.0128847 	0.337849 	0.000845833 	0.0495149
0.0142153 	0.358068 	0.000994894 	0.0541368
0.0155459 	0.378287 	0.00114396 	0.0587586
0.0176687 	0.400985 	0.00137442 	0.0646609
0.0183037 	0.407694 	0.00144505 	0.0664715
0.0190476 	0.415553 	0.00152778 	0.0685926
0.0197915 	0.423411 	0.00161051 	0.0707136
0.0197915 	0.423411 	0.00161051 	0.0707137
0.0219913 	0.440661 	0.0018583 	0.075742
0.0241911 	0.457848 	0.00210169 	0.0809749
0.0264709 	0.471658 	0.00236504 	0.0853962
0.0287506 	0.485564 	0.00261894 	0.0900309
0.0311131 	0.497086 	0.00289633 	0.0940143
0.0334755 	0.508808 	0.00316313 	0.0982029
0.0359238 	0.51874 	0.00345247 	0.101858
0.038372 	0.528933 	0.00373448 	0.105704
0.0405947 	0.536598 	0.00399857 	0.108664
0.0405947 	0.536598 	0.00399857 	0.108664
0.0420205 	0.541705 	0.00416581 	0.110675
0.0428174 	0.544559 	0.00425928 	0.111798
0.0434463 	0.546811 	0.00433304 	0.112685
0.0460755 	0.554766 	0.00464585 	0.11589
0.0464014 	0.55579 	0.00468435 	0.116307
0.0475531 	0.559411 	0.00482042 	0.11778
0.0487048 	0.563031 	0.00495649 	0.119253
0.0487048 	0.563031 	0.00495649 	0.119253
0.0514295 	0.57036 	0.00528253 	0.1223
0.0514296 	0.57036 	0.00528253 	0.1223
0.0541543 	0.577999 	0.0056065 	0.125486
0.0541543 	0.577999 	0.0056065 	0.125486
0.056978 	0.584849 	0.00594632 	0.128404
0.0598016 	0.591994 	0.00628482 	0.131443
0.0627278 	0.59847 	0.0066385 	0.134255
0.0656539 	0.605215 	0.00699047 	0.137167
0.0686863 	0.611393 	0.0073587 	0.139891
0.0717187 	0.617802 	0.00772341 	0.142694
0.0748612 	0.623739 	0.00810671 	0.145347
0.0780037 	0.629858 	0.00848442 	0.148058
0.0805714 	0.634357 	0.00879948 	0.150096
0.0831391 	0.638978 	0.00910751 	0.152173
0.083828 	0.640218 	0.00919016 	0.15273
0.0845169 	0.641458 	0.0092728 	0.153287
0.0870048 	0.645554 	0.00957827 	0.155164
0.0894926 	0.649702 	0.00987539 	0.15706
0.0903796 	0.651181 	0.00998131 	0.157736
0.0912666 	0.652661 	0.0100872 	0.158412
0.094764 	0.658097 	0.0105117 	0.160933
0.0982613 	0.663513 	0.010926 	0.16346
0.0993197 	0.665079 	0.011055 	0.164192
0.100378 	0.666646 	0.0111841 	0.164923
0.102944 	0.670359 	0.0114864 	0.166693
0.10551 	0.674055 	0.0117867 	0.168462
0.107621 	0.677034 	0.0120417 	0.169868
0.109731 	0.679903 	0.0122877 	0.171268
0.111377 	0.682111 	0.0124772 	0.172358
0.113022 	0.684319 	0.0126667 	0.173447
0.116091 	0.688428 	0.0130307 	0.175424
0.119159 	0.692273 	0.0133772 	0.177392
0.119983 	0.693305 	0.0134702 	0.177919
0.120806 	0.694337 	0.0135632 	0.178447
0.123073 	0.697268 	0.0138292 	0.179867
0.12534 	0.699993 	0.0140831 	0.181285
0.127107 	0.702064 	0.014278 	0.182389
0.128874 	0.704136 	0.0144728 	0.183493
0.132902 	0.708981 	0.0149273 	0.185958
0.13693 	0.713412 	0.0153593 	0.18843
0.137082 	0.713579 	0.0153756 	0.188523
0.137234 	0.713746 	0.0153919 	0.188616
0.139668 	0.716653 	0.0156645 	0.190074
0.142102 	0.719271 	0.0159222 	0.191546
0.144 	0.721238 	0.0161194 	0.192696
0.145897 	0.723205 	0.0163166 	0.193847
0.150387 	0.728145 	0.0167926 	0.196509
0.154876 	0.732553 	0.0172428 	0.199214
0.159528 	0.737483 	0.0177179 	0.201945
0.16418 	0.74184 	0.0181665 	0.204745
0.169001 	0.746781 	0.0186384 	0.207554
0.173822 	0.751125 	0.0190844 	0.21046
0.178818 	0.7561 	0.0195507 	0.213355
0.183814 	0.760472 	0.0199932 	0.216377
0.187896 	0.764566 	0.0203591 	0.218698
0.191979 	0.768069 	0.0207046 	0.221177
0.193074 	0.769009 	0.0207973 	0.221842
0.194169 	0.769949 	0.02089 	0.222507
0.197184 	0.77296 	0.021146 	0.224192
0.200199 	0.775631 	0.0213927 	0.22599
0.20255 	0.777626 	0.0215826 	0.227422
0.2049 	0.779622 	0.0217726 	0.228853
0.21046 	0.784849 	0.0222106 	0.232021
0.21602 	0.789558 	0.0226395 	0.235408
0.221782 	0.794917 	0.0230652 	0.23866
0.227544 	0.799818 	0.0234894 	0.242158
0.22859 	0.800812 	0.0235611 	0.242721
0.229637 	0.801806 	0.0236328 	0.243284
0.234562 	0.806225 	0.0239749 	0.246115
0.239487 	0.810452 	0.0243204 	0.249081
0.2403 	0.811214 	0.0243717 	0.24951
0.241113 	0.811975 	0.024423 	0.249939
0.246488 	0.816827 	0.0247719 	0.252951
0.251863 	0.821492 	0.0251308 	0.256144
0.258275 	0.827323 	0.0255119 	0.259575
0.264688 	0.832954 	0.0259186 	0.263309
0.269928 	0.837686 	0.0261977 	0.265963
0.275168 	0.842327 	0.0265121 	0.268931
0.276574 	0.843572 	0.0265965 	0.269728
0.27798 	0.844817 	0.0266808 	0.270524
0.278708 	0.845458 	0.0267151 	0.270872
0.279437 	0.846099 	0.0267493 	0.27122
0.285595 	0.851538 	0.0270648 	0.27435
0.291753 	0.856997 	0.0274118 	0.277706
0.29889 	0.863076 	0.0277298 	0.281055
0.306027 	0.869306 	0.028102 	0.284732
0.313423 	0.875249 	0.0283895 	0.287925
0.320819 	0.881448 	0.0287387 	0.291439
0.328484 	0.887099 	0.0289904 	0.294407
0.336148 	0.893071 	0.0293084 	0.297668
0.342411 	0.897118 	0.0294612 	0.299741
0.348674 	0.901505 	0.0296812 	0.302062
0.350354 	0.902681 	0.0297402 	0.302685
0.352034 	0.903858 	0.0297992 	0.303308
0.35666 	0.906427 	0.0298784 	0.30461
0.361285 	0.909194 	0.0299969 	0.306035
0.364891 	0.911402 	0.0300993 	0.307177
0.368496 	0.91361 	0.0302018 	0.308318
0.377027 	0.917774 	0.0303253 	0.310435
0.385557 	0.922249 	0.0305095 	0.312717
0.385557 	0.922249 	0.0305095 	0.312717
0.394396 	0.925877 	0.0305879 	0.314568
0.403236 	0.929792 	0.0307199 	0.316555
0.410717 	0.932303 	0.0307401 	0.317856
0.418198 	0.935071 	0.0308052 	0.319268
0.419878 	0.935692 	0.0308198 	0.319585
0.421557 	0.936314 	0.0308344 	0.319902
0.428442 	0.938199 	0.03082 	0.320904
0.435327 	0.940307 	0.0308404 	0.321997
0.437935 	0.941106 	0.0308481 	0.322411
0.440544 	0.941904 	0.0308558 	0.322825
0.450382 	0.944184 	0.0308096 	0.324066
0.46022 	0.946656 	0.0307876 	0.325382
0.470415 	0.948579 	0.0307036 	0.326471
0.48061 	0.950666 	0.030633 	0.327624
0.482062 	0.95088 	0.0306163 	0.327753
0.483513 	0.951094 	0.0305997 	0.327881
0.492627 	0.952525 	0.0304968 	0.328723
0.501741 	0.954044 	0.0303957 	0.329598
0.51269 	0.955404 	0.0302414 	0.330446
0.523639 	0.956892 	0.0300798 	0.331343
0.531868 	0.957695 	0.0299492 	0.331879
0.540096 	0.958611 	0.0298014 	0.332458
0.543214 	0.958959 	0.0297454 	0.332677
0.546332 	0.959306 	0.0296894 	0.332896
0.558091 	0.960283 	0.0294722 	0.333572
0.569849 	0.961362 	0.0292283 	0.334285
0.582034 	0.962195 	0.0289822 	0.334891
0.594219 	0.963121 	0.0287 	0.33553
0.606847 	0.963835 	0.0284264 	0.336078
0.619475 	0.964631 	0.0281077 	0.336652
0.632561 	0.965244 	0.0278078 	0.337148
0.645647 	0.965931 	0.0274542 	0.337666
0.648698 	0.966043 	0.027387 	0.337765
0.65175 	0.966155 	0.0273199 	0.337865
0.66226 	0.966591 	0.0270417 	0.338221
0.67277 	0.96705 	0.0267411 	0.338585
0.67512 	0.967122 	0.0266878 	0.338652
0.677471 	0.967193 	0.0266344 	0.33872
0.689174 	0.967586 	0.0263211 	0.339065
0.700877 	0.96801 	0.0259705 	0.33942
0.715441 	0.968394 	0.0255972 	0.339792
0.730005 	0.968826 	0.0251442 	0.340177
0.745097 	0.969148 	0.0247481 	0.340516
0.76019 	0.96951 	0.0242646 	0.340866
0.770223 	0.969673 	0.0240218 	0.341061
0.780256 	0.969861 	0.0237011 	0.341264
0.785864 	0.969967 	0.0235174 	0.341377
0.791472 	0.970074 	0.0233337 	0.34149
0.80391 	0.970235 	0.0230186 	0.341703
0.816348 	0.970419 	0.0226041 	0.341921
0.820119 	0.970474 	0.0224785 	0.341986
0.823889 	0.97053 	0.0223529 	0.342052
0.840686 	0.970701 	0.0218903 	0.342301
0.857483 	0.970889 	0.0213236 	0.34255
0.87489 	0.971017 	0.0208394 	0.342767
0.892297 	0.971159 	0.0202473 	0.342979
0.910336 	0.971249 	0.0197425 	0.343163
0.928375 	0.971348 	0.019127 	0.343333
0.947069 	0.971405 	0.0186029 	0.343484
0.965762 	0.971469 	0.0179666 	0.343613
0.985136 	0.971499 	0.0174255 	0.34373
1.00451 	0.971535 	0.0167717 	0.343816
1.02459 	0.971544 	0.0162158 	0.343898
1.04466 	0.971561 	0.0155483 	0.343941
1.06547 	0.971553 	0.0149802 	0.343987
1.08627 	0.971556 	0.0143026 	0.343984
1.10783 	0.971537 	0.0137249 	0.343993
1.12939 	0.971532 	0.0130411 	0.343944
1.15174 	0.971505 	0.012457 	0.343914
1.17408 	0.971497 	0.011771 	0.343817
1.19723 	0.971465 	0.0111838 	0.343748
1.22038 	0.971458 	0.0105003 	0.343602
1.24438 	0.971426 	0.00991357 	0.343493
1.26837 	0.971424 	0.00923725 	0.343297
1.29324 	0.971395 	0.0086548 	0.343148
1.3181 	0.971401 	0.00799074 	0.342904
1.34387 	0.971376 	0.00741652 	0.342714
1.36964 	0.971393 	0.00676995 	0.342422
1.39635 	0.971376 	0.00620791 	0.342192
1.42305 	0.971405 	0.00558385 	0.341854
1.42685 	0.971401 	0.00551182 	0.341824
1.43065 	0.971397 	0.00543978 	0.341794
1.43275 	0.971394 	0.00540012 	0.341777
1.45557 	0.971404 	0.00493325 	0.341519
1.4784 	0.971441 	0.00444094 	0.341203
1.48665 	0.971434 	0.00429432 	0.341131
1.4949 	0.971428 	0.00414769 	0.341058
1.52571 	0.971481 	0.00354734 	0.340623
1.52571 	0.971481 	0.00354734 	0.340623
1.53073 	0.971491 	0.00344827 	0.340549
1.53073 	0.971491 	0.00344827 	0.340549
1.53576 	0.971502 	0.0033492 	0.340475
1.53576 	0.971502 	0.0033492 	0.340475
1.56548 	0.971515 	0.00284608 	0.340136
1.56548 	0.971515 	0.00284608 	0.340136
1.5952 	0.971589 	0.00231606 	0.339673
1.5952 	0.971589 	0.00231606 	0.339673
1.60599 	0.971589 	0.00215115 	0.339562
1.61678 	0.971588 	0.00198625 	0.339451
1.62599 	0.971615 	0.0018393 	0.339303
1.65679 	0.971703 	0.00134807 	0.338807
