1 1e-10
1.00148 0.00074142
1.00296 0.00179698
1.00447 0.00219415
1.00598 0.00293112
1.00753 0.00372526
1.00907 0.00471529
1.00964 0.0048526
1.0102 0.00492798
1.01121 0.00507488
1.01222 0.00500904
1.01383 0.00452055
1.01544 0.00357823
1.01709 0.00305626
1.01873 0.0025297
1.01978 0.00238876
1.02083 0.0022706
1.02146 0.00221699
1.02209 0.00214922
1.02381 0.00207603
1.02552 0.00197492
1.02727 0.00189766
1.02902 0.00180736
1.03047 0.00175053
1.03191 0.00169892
1.03226 0.0016881
1.0326 0.00167927
1.03443 0.00166518
1.03625 0.0016624
1.03812 0.00168917
1.03998 0.00171938
1.04173 0.0017693
1.04348 0.00181122
1.04363 0.00181568
1.04379 0.00181889
1.04574 0.00187244
1.04768 0.00189895
1.04967 0.00193519
1.05165 0.00191955
1.0536 0.00193988
1.05556 0.00195003
1.05563 0.00195142
1.05571 0.00195251
1.05778 0.00209769
1.05985 0.00219454
1.06197 0.00235456
1.06409 0.00237147
1.06613 0.00235944
1.06818 0.00235583
1.06829 0.00235874
1.06841 0.002362
1.07061 0.00250153
1.07282 0.00265689
1.07507 0.00261876
1.07733 0.00266746
1.07936 0.00238927
1.0814 0.00214287
1.08166 0.00210404
1.08193 0.00207049
1.08428 0.00173944
1.08663 0.00143064
1.08903 0.00132516
1.09143 0.00116993
1.09333 0.00116201
1.09524 0.00114117
1.09578 0.00113402
1.09633 0.00112659
1.09883 0.00118229
1.10133 0.00123194
1.10389 0.00134942
1.10644 0.00151231
1.1081 0.00159918
1.10976 0.00172617
1.11071 0.00178552
1.11166 0.00186138
1.11433 0.0019363
1.11699 0.00209015
1.11972 0.0020684
1.12244 0.00213208
1.12372 0.00209583
1.125 0.00206826
1.1265 0.00202189
1.128 0.00200581
1.13084 0.00193582
1.13368 0.00190741
1.13657 0.00196291
1.13947 0.00204544
1.14025 0.00209977
1.14103 0.00215881
1.14321 0.0023283
1.14539 0.00249539
1.14842 0.0028405
1.15144 0.00314178
1.15453 0.00354873
1.15762 0.00392804
1.15776 0.00394809
1.15789 0.00396701
1.16091 0.00435669
1.16392 0.00468176
1.16714 0.00499765
1.17036 0.00521818
1.17302 0.00532103
1.17568 0.00539251
1.17631 0.00540681
1.17694 0.00541568
1.1803 0.00533582
1.18366 0.00523542
1.18709 0.00497074
1.19052 0.00467966
1.19248 0.00444526
1.19444 0.00419398
1.19598 0.00400287
1.19752 0.00381763
1.2011 0.00330349
1.20467 0.00281174
1.20833 0.00228225
1.21198 0.00178484
1.21313 0.00166397
1.21429 0.00155356
1.21686 0.00131903
1.21944 0.00110132
1.22325 0.0009437
1.22706 0.000816711
1.23095 0.000773884
1.23484 0.000744829
1.23507 0.00074501
1.23529 0.000745334
1.23904 0.000758228
1.24278 0.000772456
1.24684 0.000765686
1.2509 0.000749578
1.25424 0.000718296
1.25758 0.000673728
1.25838 0.000667949
1.25918 0.000661203
1.26341 0.000640082
1.26764 0.000582745
1.27197 0.000561303
1.27629 0.000492606
1.27877 0.000475726
1.28125 0.000446143
1.28318 0.000437421
1.28511 0.000415803
1.28962 0.000403907
1.29412 0.000352505
1.29873 0.000341062
1.30333 0.000304442
1.30489 0.000302587
1.30645 0.000297488
1.30959 0.000304498
1.31273 0.000298086
1.31753 0.000308393
1.32233 0.000294072
1.32723 0.000292134
1.33213 0.000277181
1.33273 0.000276812
1.33333 0.000275416
1.33774 0.00028793
1.34214 0.000281017
1.34725 0.000289763
1.35236 0.000267658
1.35722 0.000261937
1.36207 0.000245084
1.36244 0.000245986
1.3628 0.00024475
1.36813 0.000251314
1.37346 0.000235269
1.37891 0.000236076
1.38435 0.000212088
1.3886 0.000206745
1.39286 0.000194578
1.39416 0.000195094
1.39547 0.000190533
1.40115 0.000190782
1.40682 0.000174881
1.41262 0.000172256
1.41842 0.000158176
1.42217 0.000155841
1.42593 0.000151525
1.42809 0.000150894
1.43026 0.00014734
1.43631 0.00014589
1.44236 0.000140429
1.44853 0.00013865
1.45471 0.000135675
1.45812 0.000134803
1.46154 0.000133713
1.46443 0.00013283
1.46732 0.000131762
1.47376 0.000130235
1.4802 0.000128391
1.48678 0.000127368
1.49335 0.000125945
1.49668 0.000125632
1.5 0.000125212
1.50339 0.00012478
1.50679 0.000124299
1.51364 0.000123989
1.5205 0.000123535
1.52751 0.000123552
1.53451 0.000123494
1.53809 0.000123622
1.54167 0.000123737
1.54524 0.000123831
1.54882 0.000123927
1.55612 0.000124341
1.56343 0.000124768
1.57089 0.000125381
1.57835 0.000126007
1.58265 0.000126443
1.58696 0.000126883
1.59027 0.00012721
1.59359 0.000127546
1.60137 0.000128426
1.60915 0.000129333
1.61709 0.000130337
1.62504 0.000131368
1.6307 0.000132147
1.63636 0.000132936
1.63881 0.000133273
1.64127 0.000133616
1.64955 0.000134827
1.65784 0.000136061
1.6663 0.000137365
1.67476 0.000138696
1.68262 0.000139969
1.69048 0.000141254
1.69126 0.000141381
1.69205 0.000141511
1.70087 0.000142991
1.7097 0.000144488
1.71871 0.000146057
1.72772 0.000147655
1.73693 0.000149292
1.74613 0.000150945
1.74806 0.000151304
1.75 0.000151666
1.75746 0.000153063
1.76493 0.000154471
1.77453 0.000156255
1.78412 0.000158063
1.79393 0.000159991
1.80373 0.000161941
1.80976 0.000163116
1.81579 0.000164298
1.81977 0.00016508
1.82375 0.000165867
1.83397 0.000167933
1.8442 0.000170021
1.85464 0.000172214
1.86508 0.000174434
1.87574 0.000176585
1.8864 0.00017875
1.88764 0.000179025
1.88889 0.000179301
1.89853 0.000181447
1.90818 0.000183608
1.91929 0.000185993
1.93041 0.000188406
1.94177 0.000190927
1.95312 0.000193471
1.96186 0.000195367
1.97059 0.000197277
1.97345 0.000197905
1.97632 0.000198538
1.98816 0.000201531
2 0.000204544
