0 	0 	0 	0 	0 	0 	0
0.000963618 	0.0221372 	6.43276e-05 	-9.9744e-05 	5.01069e-05 	-3.69805e-05 	7.19361e-05
0.00192724 	0.043 	0.000134044 	-0.000210803 	9.67392e-05 	-7.03082e-05 	0.000141365
0.00290853 	0.0575012 	0.000169493 	-0.00025621 	0.000278775 	-0.000192173 	0.00027027
0.00388982 	0.0715221 	0.000221045 	-0.00030295 	0.000449125 	-0.000305864 	0.000396776
0.00488911 	0.0818573 	9.93671e-05 	-0.000275817 	0.000866241 	-0.000495239 	0.000513217
0.0058884 	0.0920091 	1.03161e-05 	-0.000229076 	0.00125693 	-0.000674191 	0.000631647
0.00690601 	0.0973647 	-0.000292115 	0.000101499 	0.00194837 	-0.000850235 	0.000669611
0.00792363 	0.102841 	-0.000544693 	0.000471527 	0.00259733 	-0.00101814 	0.000713917
0.00895991 	0.104699 	-0.000979102 	0.000970579 	0.00357678 	-0.001145 	0.0007005
0.00999619 	0.106859 	-0.00135229 	0.00151028 	0.00449825 	-0.00126592 	0.000693101
0.0110515 	0.106814 	-0.00187558 	0.00197555 	0.00576831 	-0.00136065 	0.000672726
0.0121068 	0.107126 	-0.00232904 	0.0024667 	0.00696653 	-0.00144932 	0.000655359
0.0131814 	0.106114 	-0.00292758 	0.00284384 	0.00852198 	-0.00153313 	0.00064497
0.0142561 	0.10545 	-0.00344849 	0.00322954 	0.00999455 	-0.0016101 	0.000634957
0.0153504 	0.103968 	-0.0041191 	0.00354308 	0.0118268 	-0.00169271 	0.00063652
0.0164448 	0.102808 	-0.00470569 	0.00385248 	0.0135686 	-0.00176817 	0.000636881
0.0175592 	0.101103 	-0.00544516 	0.00413218 	0.0156683 	-0.00185258 	0.000648954
0.0186736 	0.0996973 	-0.00609557 	0.00440024 	0.0176734 	-0.00192998 	0.000658923
0.0198085 	0.0978763 	-0.00689853 	0.00466418 	0.0200285 	-0.00201642 	0.000679836
0.0209433 	0.0963376 	-0.00760964 	0.00491248 	0.0222894 	-0.00209632 	0.000698098
0.022099 	0.0944349 	-0.00846772 	0.00516937 	0.0248845 	-0.00218431 	0.000726484
0.0232547 	0.0927962 	-0.00923355 	0.00540867 	0.0273911 	-0.00226631 	0.000751855
0.0244316 	0.0908104 	-0.0101369 	0.00566083 	0.0302076 	-0.0023553 	0.000786683
0.0256084 	0.0890696 	-0.0109504 	0.00589493 	0.0329468 	-0.00243881 	0.000818224
0.0268069 	0.0869734 	-0.0118862 	0.00613992 	0.0359624 	-0.00252827 	0.000858727
0.0280054 	0.0851044 	-0.0127383 	0.00636789 	0.0389177 	-0.00261272 	0.000895733
0.0292258 	0.0828544 	-0.01369 	0.0065991 	0.0421055 	-0.00270216 	0.000941257
0.0304462 	0.0808152 	-0.0145689 	0.0068162 	0.0452561 	-0.00278697 	0.000983159
0.0316891 	0.0783638 	-0.0155153 	0.00702304 	0.0485834 	-0.0028759 	0.00103293
0.0329319 	0.0761043 	-0.0164051 	0.00722074 	0.0519025 	-0.00296052 	0.00107911
0.0341975 	0.073417 	-0.0173212 	0.0073896 	0.0553301 	-0.0030484 	0.00113199
0.0354631 	0.0708942 	-0.0182021 	0.00755577 	0.058784 	-0.00313228 	0.00118153
0.036752 	0.0679563 	-0.0190604 	0.0076718 	0.0622656 	-0.00321849 	0.00123596
0.0380408 	0.0651475 	-0.0199083 	0.00779198 	0.0658127 	-0.003301 	0.00128749
0.0393533 	0.0619651 	-0.0206815 	0.00784132 	0.0692945 	-0.00338469 	0.00134162
0.0406657 	0.0588726 	-0.02147 	0.007901 	0.0728848 	-0.00346508 	0.00139335
0.0420023 	0.0554727 	-0.0221318 	0.00787212 	0.0763051 	-0.00354531 	0.00144543
0.0433388 	0.0521206 	-0.0228347 	0.00785874 	0.0798803 	-0.0036227 	0.00149551
0.0446999 	0.0485446 	-0.0233608 	0.00774205 	0.0831681 	-0.00369852 	0.00154414
0.0460609 	0.0449758 	-0.0239539 	0.00764549 	0.0866604 	-0.00377205 	0.00159097
0.047447 	0.041297 	-0.0243219 	0.00743248 	0.08973 	-0.00384271 	0.0016349
0.048833 	0.0375781 	-0.0247819 	0.00724441 	0.0930578 	-0.00391172 	0.00167729
0.0502444 	0.0339267 	-0.0249719 	0.00692935 	0.0958111 	-0.0039764 	0.00171437
0.0516559 	0.0301647 	-0.0252753 	0.00664317 	0.0988764 	-0.00404051 	0.00175085
0.0530932 	0.0267452 	-0.0252735 	0.00623088 	0.101218 	-0.00409557 	0.00177651
0.0545305 	0.0231168 	-0.0254005 	0.00584595 	0.103919 	-0.00415337 	0.00180395
0.0559942 	0.0201882 	-0.0252146 	0.00536715 	0.105783 	-0.00418885 	0.00181011
0.0574579 	0.016942 	-0.025156 	0.00490063 	0.10803 	-0.004233 	0.0018223
0.0589484 	0.0146674 	-0.024801 	0.00439951 	0.109377 	-0.00423926 	0.00180203
0.060439 	0.0120371 	-0.0245694 	0.00389335 	0.111115 	-0.00425986 	0.00179064
0.0619568 	0.0104174 	-0.0240496 	0.00339643 	0.111913 	-0.00423957 	0.00174296
0.0634747 	0.00848172 	-0.0236536 	0.00288906 	0.113095 	-0.00423122 	0.00170396
0.0650204 	0.00747869 	-0.0229663 	0.00240615 	0.113331 	-0.00418789 	0.00163285
0.0665661 	0.00620426 	-0.0224028 	0.00191434 	0.113938 	-0.00415559 	0.00156887
0.0681402 	0.00581487 	-0.0215356 	0.00145486 	0.113574 	-0.00408667 	0.00148105
0.0697143 	0.00518453 	-0.0207984 	0.000988574 	0.113584 	-0.00403091 	0.00139777
0.0713172 	0.00544873 	-0.0197543 	0.000569893 	0.112568 	-0.00393961 	0.0013004
0.0729201 	0.00548332 	-0.0188333 	0.000142267 	0.111919 	-0.00385907 	0.00120504
0.0745524 	0.00644569 	-0.0176461 	-0.000208803 	0.11026 	-0.00375063 	0.00110482
0.0761848 	0.00718933 	-0.0165542 	-0.000575842 	0.108925 	-0.00365162 	0.00100477
0.077847 	0.00881455 	-0.0152781 	-0.000829361 	0.106648 	-0.00352833 	0.000907691
0.0795093 	0.0102721 	-0.0140575 	-0.00110721 	0.104643 	-0.00341332 	0.000809401
0.0812021 	0.01239 	-0.0127602 	-0.00124285 	0.101774 	-0.00327802 	0.000720621
0.0828948 	0.0144496 	-0.0114735 	-0.00140659 	0.0991271 	-0.00314891 	0.000629581
0.0846186 	0.0167751 	-0.0102267 	-0.00142365 	0.0957411 	-0.00300795 	0.000553351
0.0863424 	0.0191927 	-0.00894616 	-0.00146455 	0.0924992 	-0.00286903 	0.000474094
0.0880979 	0.0214 	-0.00781959 	-0.00138199 	0.0887277 	-0.00273111 	0.000413125
0.0898533 	0.0238552 	-0.00661741 	-0.00131254 	0.0849984 	-0.00259025 	0.000348884
0.0916409 	0.0256543 	-0.00567389 	-0.00116205 	0.0809987 	-0.00246341 	0.000303701
0.0934285 	0.0278293 	-0.00461896 	-0.00101147 	0.0769325 	-0.00233008 	0.00025578
0.0952489 	0.0290153 	-0.00390292 	-0.000827707 	0.0728611 	-0.00221862 	0.000224692
0.0970693 	0.0306556 	-0.00305543 	-0.000633387 	0.0686222 	-0.00210077 	0.000192088
0.0989231 	0.0311445 	-0.00258025 	-0.000444461 	0.0646229 	-0.0020033 	0.000172042
0.100777 	0.0320844 	-0.0019816 	-0.000241533 	0.060369 	-0.00190482 	0.000151906
0.102665 	0.0319617 	-0.00170882 	-6.48969e-05 	0.0565674 	-0.00181362 	0.000139571
0.104552 	0.0321772 	-0.00135473 	0.000121282 	0.0524428 	-0.00173165 	0.000128179
0.106475 	0.031586 	-0.00122795 	0.00027928 	0.0489303 	-0.00163557 	0.000120966
0.108397 	0.0312072 	-0.0010735 	0.000436888 	0.0450501 	-0.00156024 	0.000115053
0.110355 	0.030238 	-0.00103717 	0.000574522 	0.0418824 	-0.00145168 	0.000111397
0.112313 	0.0293666 	-0.00102272 	0.000702928 	0.0383266 	-0.00137108 	0.000108801
0.114306 	0.0281155 	-0.00099544 	0.000813588 	0.0355326 	-0.00125105 	0.000107638
0.1163 	0.0268006 	-0.00103574 	0.000913517 	0.0323587 	-0.00115749 	0.00010698
0.11833 	0.0254126 	-0.000957662 	0.000987025 	0.0299404 	-0.0010355 	0.000107233
0.12036 	0.0238557 	-0.00096968 	0.00105579 	0.0271808 	-0.000929853 	0.000107533
0.122428 	0.0224707 	-0.00085143 	0.00108637 	0.025112 	-0.000819178 	0.000107834
0.124495 	0.0209188 	-0.000808038 	0.00112083 	0.022759 	-0.000710692 	0.000108133
0.1266 	0.0195945 	-0.000691761 	0.00111052 	0.0209967 	-0.000621965 	0.000107187
0.128705 	0.0181423 	-0.000612789 	0.00110966 	0.0190069 	-0.000523332 	0.000106498
0.130849 	0.0168927 	-0.000523046 	0.0010674 	0.0175083 	-0.000460081 	0.00010371
0.132993 	0.0155443 	-0.000438107 	0.00103465 	0.015827 	-0.000381135 	0.00010137
0.135177 	0.0143905 	-0.000379659 	0.000974044 	0.0145575 	-0.000339713 	9.70824e-05
0.13736 	0.0131479 	-0.000309694 	0.0009185 	0.0131373 	-0.000283443 	9.30781e-05
0.139583 	0.0121155 	-0.000275248 	0.000852932 	0.012068 	-0.000256708 	8.81565e-05
0.141806 	0.0109943 	-0.000226747 	0.00078669 	0.0108715 	-0.00021953 	8.3107e-05
0.14407 	0.0100995 	-0.000206481 	0.000725284 	0.00997602 	-0.000200952 	7.83355e-05
0.146334 	0.00911607 	-0.000175935 	0.000659093 	0.00897174 	-0.000176414 	7.30881e-05
0.14864 	0.0083586 	-0.000162881 	0.000605834 	0.00822523 	-0.000162069 	6.88827e-05
0.150946 	0.00751795 	-0.000143663 	0.000546206 	0.00738601 	-0.000144564 	6.40567e-05
0.153293 	0.00688546 	-0.000134455 	0.000501549 	0.00676583 	-0.000132779 	6.05115e-05
0.155641 	0.00617938 	-0.000121421 	0.000450731 	0.00606734 	-0.000119055 	5.63676e-05
0.158032 	0.00565524 	-0.000114906 	0.000413692 	0.00555264 	-0.000109272 	5.34107e-05
0.160423 	0.0050682 	-0.000105547 	0.000371379 	0.00497284 	-9.79667e-05 	4.99384e-05
0.162858 	0.00463612 	-0.00010071 	0.000340732 	0.00454614 	-8.99153e-05 	4.74709e-05
0.165293 	0.00415113 	-9.37581e-05 	0.000305733 	0.00406492 	-8.05492e-05 	4.45774e-05
0.167772 	0.00379603 	-8.95878e-05 	0.000280389 	0.0037131 	-7.39528e-05 	4.25176e-05
0.170252 	0.003397 	-8.39274e-05 	0.000251478 	0.00331517 	-6.62609e-05 	4.0105e-05
0.172776 	0.00310524 	-7.9689e-05 	0.000230506 	0.0030258 	-6.08215e-05 	3.83824e-05
0.175301 	0.00277745 	-7.43662e-05 	0.000206616 	0.00269866 	-5.45112e-05 	3.63673e-05
0.177873 	0.00253723 	-6.97837e-05 	0.000189241 	0.00246023 	-4.99947e-05 	3.49237e-05
0.180444 	0.00226775 	-6.43461e-05 	0.000169485 	0.00219069 	-4.47753e-05 	3.32369e-05
0.183062 	0.00206945 	-5.96433e-05 	0.000155076 	0.00199465 	-4.10309e-05 	3.2026e-05
0.185681 	0.00184743 	-5.41037e-05 	0.000138729 	0.00177269 	-3.67027e-05 	3.06125e-05
0.188347 	0.00168353 	-4.9596e-05 	0.000126791 	0.00161209 	-3.36109e-05 	2.95972e-05
0.191013 	0.00150036 	-4.4146e-05 	0.000113271 	0.0014301 	-3.00283e-05 	2.84122e-05
0.193729 	0.00136508 	-4.03559e-05 	0.000103414 	0.00129896 	-2.75002e-05 	2.75627e-05
0.196444 	0.00121399 	-3.54614e-05 	9.22569e-05 	0.00115015 	-2.45577e-05 	2.65705e-05
0.199209 	0.00110301 	-3.27406e-05 	8.41742e-05 	0.00104339 	-2.25034e-05 	2.58621e-05
0.201974 	0.000978772 	-2.88166e-05 	7.50097e-05 	0.000922174 	-2.01044e-05 	2.50332e-05
0.20479 	0.000888666 	-2.69635e-05 	6.84322e-05 	0.000835521 	-1.84293e-05 	2.44444e-05
0.207606 	0.000787312 	-2.41569e-05 	6.09614e-05 	0.000737024 	-1.64698e-05 	2.37546e-05
0.210473 	0.000714699 	-2.26721e-05 	5.56203e-05 	0.000666869 	-1.51439e-05 	2.32707e-05
0.213341 	0.000632719 	-2.05772e-05 	4.95501e-05 	0.000587061 	-1.35883e-05 	2.27015e-05
0.216261 	0.000574305 	-1.92433e-05 	4.5212e-05 	0.000530464 	-1.25421e-05 	2.22909e-05
0.219181 	0.00050843 	-1.74096e-05 	4.02921e-05 	0.000466048 	-1.13128e-05 	2.18076e-05
0.222155 	0.000461199 	-1.62989e-05 	3.67801e-05 	0.000420535 	-1.042e-05 	2.14613e-05
0.225128 	0.000408158 	-1.47154e-05 	3.28163e-05 	0.000368707 	-9.37495e-06 	2.10545e-05
0.228156 	0.000369798 	-1.38281e-05 	2.99774e-05 	0.000332259 	-8.62365e-06 	2.0775e-05
0.231184 	0.000326823 	-1.24971e-05 	2.67824e-05 	0.000290722 	-7.74284e-06 	2.0446e-05
0.234268 	0.00029583 	-1.17646e-05 	2.44916e-05 	0.000261662 	-7.13904e-06 	2.02129e-05
0.237352 	0.000261111 	-1.06279e-05 	2.19177e-05 	0.000228528 	-6.42683e-06 	1.99387e-05
0.240492 	0.000236195 	-1.00517e-05 	2.00761e-05 	0.000205419 	-5.94009e-06 	1.97421e-05
0.243632 	0.000208276 	-9.1291e-06 	1.8012e-05 	0.000179065 	-5.36457e-06 	1.95113e-05
0.24683 	0.000188315 	-8.67367e-06 	1.65321e-05 	0.000160766 	-4.97262e-06 	1.93438e-05
0.250028 	0.000165971 	-7.92483e-06 	1.48807e-05 	0.000139884 	-4.50884e-06 	1.91478e-05
0.253285 	0.000150002 	-7.56428e-06 	1.36886e-05 	0.000125463 	-4.19221e-06 	1.90035e-05
0.256541 	0.000132174 	-6.95729e-06 	1.23663e-05 	0.000108999 	-3.81829e-06 	1.8835e-05
0.259857 	0.000119379 	-6.66251e-06 	1.14041e-05 	9.76672e-05 	-3.56138e-06 	1.87117e-05
0.263174 	0.000105171 	-6.18073e-06 	1.03422e-05 	8.47458e-05 	-3.25985e-06 	1.85653e-05
0.266551 	9.492e-05 	-5.92939e-06 	9.55399e-06 	7.586e-05 	-3.04781e-06 	1.84657e-05
0.269928 	8.35974e-05 	-5.55379e-06 	8.69991e-06 	6.57645e-05 	-2.80176e-06 	1.8338e-05
0.273367 	7.53974e-05 	-5.34421e-06 	8.0578e-06 	5.88281e-05 	-2.63032e-06 	1.82505e-05
0.276806 	6.63519e-05 	-5.02318e-06 	7.3651e-06 	5.09778e-05 	-2.42662e-06 	1.81408e-05
0.280308 	5.98613e-05 	-4.84475e-06 	6.85557e-06 	4.55831e-05 	-2.29535e-06 	1.80518e-05
0.28381 	5.26893e-05 	-4.5223e-06 	6.29525e-06 	3.94826e-05 	-2.13186e-06 	1.79538e-05
0.287376 	4.76662e-05 	-4.3494e-06 	5.88313e-06 	3.53099e-05 	-2.01958e-06 	1.7872e-05
0.290942 	4.20788e-05 	-4.01637e-06 	5.44032e-06 	3.05773e-05 	-1.88212e-06 	1.77827e-05
0.294574 	3.81724e-05 	-3.86573e-06 	5.11653e-06 	2.73854e-05 	-1.78127e-06 	1.7708e-05
0.298206 	3.38176e-05 	-3.55314e-06 	4.76631e-06 	2.3744e-05 	-1.66202e-06 	1.76329e-05
0.301904 	3.07675e-05 	-3.46079e-06 	4.5134e-06 	2.1302e-05 	-1.58291e-06 	1.75668e-05
0.305602 	2.74086e-05 	-3.21872e-06 	4.23504e-06 	1.8526e-05 	-1.49067e-06 	1.75012e-05
0.309368 	2.50616e-05 	-3.16289e-06 	4.03794e-06 	1.66508e-05 	-1.42747e-06 	1.74461e-05
0.313135 	2.24978e-05 	-2.99361e-06 	3.8275e-06 	1.45521e-05 	-1.34893e-06 	1.73832e-05
0.31697 	2.06989e-05 	-2.92603e-06 	3.68356e-06 	1.31153e-05 	-1.29228e-06 	1.73364e-05
0.320805 	1.87356e-05 	-2.77099e-06 	3.52993e-06 	1.15151e-05 	-1.21971e-06 	1.72798e-05
0.324711 	1.73422e-05 	-2.69889e-06 	3.42357e-06 	1.0418e-05 	-1.17485e-06 	1.72403e-05
0.328616 	1.58325e-05 	-2.55353e-06 	3.30802e-06 	9.19257e-06 	-1.11791e-06 	1.71933e-05
0.332593 	1.47278e-05 	-2.48794e-06 	3.23063e-06 	8.36165e-06 	-1.08644e-06 	1.71592e-05
0.336571 	1.35408e-05 	-2.36352e-06 	3.14893e-06 	7.43711e-06 	-1.04578e-06 	1.71182e-05
0.340621 	1.26316e-05 	-2.33791e-06 	3.09559e-06 	6.84482e-06 	-1.00983e-06 	1.70881e-05
0.344671 	1.16706e-05 	-2.26182e-06 	3.04108e-06 	6.18002e-06 	-9.66467e-07 	1.70523e-05
0.348795 	1.08607e-05 	-2.2145e-06 	2.98943e-06 	5.68758e-06 	-9.53151e-07 	1.70252e-05
0.35292 	1.00063e-05 	-2.12455e-06 	2.93577e-06 	5.13819e-06 	-9.32114e-07 	1.69944e-05
0.35712 	9.44102e-06 	-2.01754e-06 	2.88038e-06 	4.65381e-06 	-9.72662e-07 	1.69595e-05
0.36132 	8.83248e-06 	-1.88126e-06 	2.82448e-06 	4.13368e-06 	-1.00431e-06 	1.6922e-05
0.365597 	8.43391e-06 	-1.83478e-06 	2.78537e-06 	3.80838e-06 	-1.03183e-06 	1.68874e-05
0.369874 	8.00368e-06 	-1.76565e-06 	2.7467e-06 	3.46137e-06 	-1.05057e-06 	1.68525e-05
0.37423 	7.60505e-06 	-1.7519e-06 	2.71957e-06 	3.27538e-06 	-1.04543e-06 	1.68291e-05
0.378585 	7.1786e-06 	-1.71212e-06 	2.69046e-06 	3.07009e-06 	-1.03197e-06 	1.68099e-05
0.383021 	6.86081e-06 	-1.67983e-06 	2.66562e-06 	2.9161e-06 	-1.03138e-06 	1.67877e-05
0.387456 	6.53489e-06 	-1.62543e-06 	2.63171e-06 	2.74387e-06 	-1.02469e-06 	1.67709e-05
0.391973 	6.27714e-06 	-1.60257e-06 	2.61021e-06 	2.6356e-06 	-1.02302e-06 	1.67518e-05
0.39649 	6.0226e-06 	-1.555e-06 	2.57694e-06 	2.49857e-06 	-1.0289e-06 	1.67282e-05
0.401089 	5.79181e-06 	-1.51848e-06 	2.54812e-06 	2.40157e-06 	-1.03081e-06 	1.67198e-05
0.405689 	5.60733e-06 	-1.45691e-06 	2.51205e-06 	2.26662e-06 	-1.05978e-06 	1.66864e-05
0.410373 	5.46855e-06 	-1.41411e-06 	2.47759e-06 	2.16452e-06 	-1.08398e-06 	1.6664e-05
0.415057 	5.37727e-06 	-1.35641e-06 	2.43341e-06 	2.04199e-06 	-1.12501e-06 	1.66274e-05
0.419827 	5.30808e-06 	-1.33823e-06 	2.41159e-06 	1.97366e-06 	-1.158e-06 	1.65851e-05
0.424597 	5.25507e-06 	-1.32452e-06 	2.3874e-06 	1.91293e-06 	-1.18467e-06 	1.65453e-05
0.429454 	5.18672e-06 	-1.31088e-06 	2.37613e-06 	1.86484e-06 	-1.21868e-06 	1.65018e-05
0.434311 	5.11344e-06 	-1.31544e-06 	2.3567e-06 	1.84322e-06 	-1.22309e-06 	1.64801e-05
0.439258 	5.06465e-06 	-1.30985e-06 	2.32654e-06 	1.81404e-06 	-1.23468e-06 	1.64636e-05
0.444204 	4.97095e-06 	-1.30506e-06 	2.30196e-06 	1.80112e-06 	-1.23022e-06 	1.64563e-05
0.449241 	4.93892e-06 	-1.32286e-06 	2.28023e-06 	1.80304e-06 	-1.22145e-06 	1.64471e-05
0.454279 	4.8697e-06 	-1.31712e-06 	2.27311e-06 	1.79299e-06 	-1.22427e-06 	1.6427e-05
0.459408 	4.83325e-06 	-1.31732e-06 	2.28418e-06 	1.78416e-06 	-1.23259e-06 	1.63869e-05
0.464538 	4.8049e-06 	-1.3014e-06 	2.28803e-06 	1.7604e-06 	-1.24683e-06 	1.63519e-05
0.469761 	4.78436e-06 	-1.30306e-06 	2.29383e-06 	1.7541e-06 	-1.25852e-06 	1.63052e-05
0.474985 	4.75779e-06 	-1.28787e-06 	2.29654e-06 	1.73706e-06 	-1.26984e-06 	1.62678e-05
0.480305 	4.76672e-06 	-1.32155e-06 	2.29535e-06 	1.7571e-06 	-1.27429e-06 	1.6227e-05
0.485624 	4.75723e-06 	-1.33202e-06 	2.29341e-06 	1.76394e-06 	-1.27741e-06 	1.61932e-05
0.491041 	4.77425e-06 	-1.39108e-06 	2.28205e-06 	1.80991e-06 	-1.27339e-06 	1.61668e-05
0.496458 	4.77775e-06 	-1.42771e-06 	2.27206e-06 	1.83932e-06 	-1.27029e-06 	1.61406e-05
0.501975 	4.84148e-06 	-1.49358e-06 	2.24964e-06 	1.89754e-06 	-1.2596e-06 	1.61235e-05
0.507491 	4.88973e-06 	-1.54867e-06 	2.23008e-06 	1.9403e-06 	-1.25459e-06 	1.61037e-05
0.513109 	4.88895e-06 	-1.65971e-06 	2.20689e-06 	2.08325e-06 	-1.22004e-06 	1.60959e-05
0.518726 	4.93721e-06 	-1.73222e-06 	2.17757e-06 	2.15017e-06 	-1.21055e-06 	1.60843e-05
0.524447 	5.08025e-06 	-1.87298e-06 	2.07085e-06 	2.26095e-06 	-1.1917e-06 	1.60984e-05
0.530167 	5.24145e-06 	-2.02284e-06 	1.97828e-06 	2.3828e-06 	-1.16367e-06 	1.61084e-05
0.535993 	5.22419e-06 	-1.83705e-06 	1.95527e-06 	2.22233e-06 	-1.29988e-06 	1.607e-05
0.541818 	5.29655e-06 	-1.85252e-06 	1.88484e-06 	2.24535e-06 	-1.3355e-06 	1.60537e-05
0.547751 	5.10323e-06 	-1.5636e-06 	2.04029e-06 	2.09081e-06 	-1.54094e-06 	1.59115e-05
0.553683 	4.95175e-06 	-1.30276e-06 	2.15925e-06 	1.95005e-06 	-1.72593e-06 	1.5777e-05
0.559724 	5.02871e-06 	-1.25537e-06 	2.25359e-06 	1.93166e-06 	-1.8183e-06 	1.56665e-05
0.565765 	5.02409e-06 	-1.06435e-06 	2.38001e-06 	1.85012e-06 	-1.98047e-06 	1.55258e-05
0.571917 	5.1273e-06 	-1.09544e-06 	2.39099e-06 	1.8521e-06 	-1.99333e-06 	1.54988e-05
0.578069 	5.12755e-06 	-1.09467e-06 	2.42689e-06 	1.86685e-06 	-2.03435e-06 	1.54541e-05
0.584334 	5.20164e-06 	-1.12659e-06 	2.44956e-06 	1.85396e-06 	-2.03055e-06 	1.54433e-05
0.590599 	5.22968e-06 	-1.16668e-06 	2.47501e-06 	1.85705e-06 	-2.03271e-06 	1.5433e-05
0.596979 	5.34943e-06 	-1.17593e-06 	2.51429e-06 	1.8269e-06 	-2.02805e-06 	1.54105e-05
0.603358 	5.45603e-06 	-1.19958e-06 	2.55127e-06 	1.80847e-06 	-2.01805e-06 	1.53982e-05
0.609855 	5.529e-06 	-1.20328e-06 	2.60846e-06 	1.77766e-06 	-2.0138e-06 	1.53532e-05
0.616352 	5.63992e-06 	-1.23167e-06 	2.68998e-06 	1.75973e-06 	-2.00307e-06 	1.52965e-05
0.622968 	5.64554e-06 	-1.23752e-06 	2.73078e-06 	1.74391e-06 	-1.99758e-06 	1.52498e-05
0.629583 	5.69682e-06 	-1.26971e-06 	2.79538e-06 	1.7387e-06 	-1.98364e-06 	1.51896e-05
0.636321 	5.63513e-06 	-1.24593e-06 	2.81195e-06 	1.72779e-06 	-1.98668e-06 	1.51523e-05
0.643058 	5.53339e-06 	-1.20905e-06 	2.83796e-06 	1.70788e-06 	-1.98584e-06 	1.51268e-05
0.649919 	5.51146e-06 	-1.17763e-06 	2.85553e-06 	1.70558e-06 	-1.99576e-06 	1.50751e-05
0.656779 	5.46844e-06 	-1.10906e-06 	2.87494e-06 	1.67763e-06 	-2.01333e-06 	1.50303e-05
0.663766 	5.45791e-06 	-1.10513e-06 	2.90425e-06 	1.69871e-06 	-2.0026e-06 	1.49772e-05
0.670753 	5.44785e-06 	-1.10453e-06 	2.9379e-06 	1.71719e-06 	-1.99657e-06 	1.49087e-05
0.677867 	5.43477e-06 	-1.09109e-06 	2.97059e-06 	1.74098e-06 	-1.96888e-06 	1.48635e-05
0.684982 	5.38795e-06 	-1.09629e-06 	2.99554e-06 	1.77581e-06 	-1.93599e-06 	1.48169e-05
0.692227 	5.43121e-06 	-1.0816e-06 	3.04345e-06 	1.80898e-06 	-1.90297e-06 	1.47506e-05
0.699473 	5.45564e-06 	-1.06377e-06 	3.08528e-06 	1.84414e-06 	-1.86948e-06 	1.46851e-05
0.706851 	5.48643e-06 	-1.07738e-06 	3.11462e-06 	1.90321e-06 	-1.81349e-06 	1.46406e-05
0.714229 	5.53566e-06 	-1.07178e-06 	3.16584e-06 	1.96024e-06 	-1.76209e-06 	1.4581e-05
0.721742 	5.50062e-06 	-1.08395e-06 	3.17634e-06 	1.99324e-06 	-1.72363e-06 	1.45432e-05
0.729256 	5.52067e-06 	-1.07914e-06 	3.1899e-06 	2.03376e-06 	-1.66977e-06 	1.45158e-05
0.736907 	5.43044e-06 	-1.09646e-06 	3.20879e-06 	2.027e-06 	-1.68964e-06 	1.44372e-05
0.744558 	5.37499e-06 	-1.09007e-06 	3.23496e-06 	2.02219e-06 	-1.70106e-06 	1.43592e-05
0.75235 	5.27731e-06 	-1.10157e-06 	3.2393e-06 	2.00134e-06 	-1.73061e-06 	1.4274e-05
0.760142 	5.19752e-06 	-1.10461e-06 	3.24842e-06 	1.97178e-06 	-1.76326e-06 	1.41784e-05
0.768076 	5.08913e-06 	-1.15624e-06 	3.28184e-06 	2.08778e-06 	-1.73441e-06 	1.41019e-05
0.776011 	4.93758e-06 	-1.21688e-06 	3.31237e-06 	2.20643e-06 	-1.69989e-06 	1.40244e-05
0.784091 	4.93022e-06 	-1.14188e-06 	3.3055e-06 	2.19624e-06 	-1.78124e-06 	1.39689e-05
0.792171 	4.88495e-06 	-1.08004e-06 	3.28701e-06 	2.18558e-06 	-1.86369e-06 	1.39073e-05
0.800399 	5.33099e-06 	-7.11431e-07 	3.14768e-06 	1.98803e-06 	-2.17326e-06 	1.38302e-05
0.808627 	5.79359e-06 	-3.30996e-07 	2.99348e-06 	1.77189e-06 	-2.49928e-06 	1.37454e-05
0.817006 	6.18163e-06 	-1.68824e-07 	2.93086e-06 	1.71926e-06 	-2.66994e-06 	1.36436e-05
0.825385 	6.58133e-06 	1.73242e-08 	2.86079e-06 	1.65699e-06 	-2.85402e-06 	1.3539e-05
0.833918 	6.62962e-06 	-7.68462e-08 	2.91968e-06 	1.66867e-06 	-2.82832e-06 	1.34535e-05
0.842451 	6.67798e-06 	-1.61717e-07 	2.97463e-06 	1.68101e-06 	-2.80733e-06 	1.3368e-05
0.85114 	6.80477e-06 	-2.0168e-07 	3.02233e-06 	1.69659e-06 	-2.8002e-06 	1.32791e-05
0.85983 	6.92975e-06 	-2.33605e-07 	3.07015e-06 	1.71099e-06 	-2.7957e-06 	1.31921e-05
0.868678 	7.09658e-06 	-2.67335e-07 	3.11887e-06 	1.72738e-06 	-2.79439e-06 	1.30945e-05
0.877527 	7.24825e-06 	-2.99488e-07 	3.1701e-06 	1.74334e-06 	-2.79226e-06 	1.29992e-05
0.886538 	7.43465e-06 	-3.37189e-07 	3.22408e-06 	1.76606e-06 	-2.79449e-06 	1.28971e-05
0.895549 	7.60586e-06 	-3.7675e-07 	3.28222e-06 	1.78757e-06 	-2.79342e-06 	1.27959e-05
0.904725 	7.77889e-06 	-4.22495e-07 	3.33436e-06 	1.81358e-06 	-2.79513e-06 	1.26904e-05
0.913901 	7.96309e-06 	-4.6817e-07 	3.39639e-06 	1.83728e-06 	-2.79286e-06 	1.25848e-05
0.923246 	8.08414e-06 	-5.26974e-07 	3.43705e-06 	1.8721e-06 	-2.79739e-06 	1.24717e-05
0.93259 	8.24927e-06 	-5.80873e-07 	3.49312e-06 	1.90253e-06 	-2.79759e-06 	1.23578e-05
0.942106 	8.31422e-06 	-6.4708e-07 	3.51617e-06 	1.94714e-06 	-2.811e-06 	1.22354e-05
0.951622 	8.43389e-06 	-7.09455e-07 	3.55492e-06 	1.98605e-06 	-2.82017e-06 	1.21113e-05
0.961313 	8.47268e-06 	-7.73496e-07 	3.56322e-06 	2.03582e-06 	-2.84242e-06 	1.19848e-05
0.971003 	8.54608e-06 	-8.40687e-07 	3.58213e-06 	2.08136e-06 	-2.86197e-06 	1.18542e-05
0.980872 	8.59127e-06 	-8.99677e-07 	3.5853e-06 	2.13368e-06 	-2.88794e-06 	1.17265e-05
0.99074 	8.64708e-06 	-9.64479e-07 	3.59293e-06 	2.18318e-06 	-2.91384e-06 	1.15913e-05
1.00079 	8.71125e-06 	-1.02904e-06 	3.59653e-06 	2.24382e-06 	-2.94518e-06 	1.14626e-05
1.01084 	8.78194e-06 	-1.09213e-06 	3.60153e-06 	2.30163e-06 	-2.97808e-06 	1.13244e-05
1.02107 	8.8685e-06 	-1.1782e-06 	3.60624e-06 	2.35913e-06 	-3.01418e-06 	1.11937e-05
1.03131 	8.9679e-06 	-1.25228e-06 	3.61366e-06 	2.41473e-06 	-3.05352e-06 	1.1052e-05
1.04173 	9.02802e-06 	-1.39053e-06 	3.64414e-06 	2.48981e-06 	-3.08738e-06 	1.09056e-05
1.05215 	9.09996e-06 	-1.511e-06 	3.6714e-06 	2.56087e-06 	-3.12333e-06 	1.07554e-05
1.06276 	9.187e-06 	-1.68518e-06 	3.60594e-06 	2.67683e-06 	-3.12608e-06 	1.07473e-05
1.07337 	9.27269e-06 	-1.85096e-06 	3.53854e-06 	2.78976e-06 	-3.13243e-06 	1.07308e-05
1.08418 	9.47824e-06 	-2.00146e-06 	3.44468e-06 	2.86683e-06 	-3.17539e-06 	1.07203e-05
1.09499 	9.67014e-06 	-2.16524e-06 	3.35826e-06 	2.9564e-06 	-3.21925e-06 	1.07004e-05
1.10599 	9.86364e-06 	-2.2964e-06 	3.37819e-06 	2.97045e-06 	-3.29146e-06 	1.05459e-05
1.117 	1.00675e-05 	-2.45226e-06 	3.39859e-06 	2.99941e-06 	-3.36593e-06 	1.03936e-05
1.1282 	1.01085e-05 	-2.64427e-06 	3.45321e-06 	3.09529e-06 	-3.31911e-06 	1.02596e-05
1.13941 	1.01561e-05 	-2.84669e-06 	3.51923e-06 	3.17813e-06 	-3.28318e-06 	1.01192e-05
1.15082 	1.0083e-05 	-3.07185e-06 	3.61321e-06 	3.41442e-06 	-3.16471e-06 	9.9972e-06
1.16224 	1.00155e-05 	-3.31669e-06 	3.73437e-06 	3.66512e-06 	-3.04599e-06 	9.84794e-06
1.17386 	9.91049e-06 	-3.44558e-06 	3.82138e-06 	3.80845e-06 	-3.00359e-06 	9.75076e-06
1.18548 	9.83663e-06 	-3.60019e-06 	3.90733e-06 	3.9969e-06 	-2.94551e-06 	9.6399e-06
1.19731 	9.88481e-06 	-3.68543e-06 	3.94536e-06 	3.96746e-06 	-3.0046e-06 	9.53468e-06
1.20915 	9.94774e-06 	-3.7706e-06 	3.96687e-06 	3.92851e-06 	-3.0638e-06 	9.43116e-06
1.2212 	9.96407e-06 	-3.88033e-06 	4.06415e-06 	4.14813e-06 	-3.05991e-06 	9.3076e-06
1.23325 	9.97155e-06 	-3.9951e-06 	4.15641e-06 	4.36607e-06 	-3.06415e-06 	9.1835e-06
1.24553 	1.00273e-05 	-4.03448e-06 	4.13389e-06 	4.4674e-06 	-3.18814e-06 	9.0749e-06
1.2578 	1.00898e-05 	-4.08893e-06 	4.10786e-06 	4.56503e-06 	-3.31954e-06 	8.96723e-06
1.2703 	1.07866e-05 	-3.9057e-06 	3.77305e-06 	4.368e-06 	-3.74047e-06 	8.84026e-06
1.2828 	1.15923e-05 	-3.70721e-06 	3.42818e-06 	4.13179e-06 	-4.18247e-06 	8.71045e-06
1.29552 	1.20068e-05 	-3.73245e-06 	3.20123e-06 	4.12027e-06 	-4.417e-06 	8.5706e-06
1.30825 	1.25017e-05 	-3.74438e-06 	2.98079e-06 	4.09589e-06 	-4.66521e-06 	8.42315e-06
1.32121 	1.22526e-05 	-4.03703e-06 	2.96777e-06 	4.22027e-06 	-4.64802e-06 	8.30543e-06
1.33417 	1.20022e-05 	-4.35174e-06 	2.96729e-06 	4.34599e-06 	-4.63455e-06 	8.1802e-06
1.34737 	1.18727e-05 	-4.56229e-06 	2.919e-06 	4.49797e-06 	-4.63534e-06 	8.06232e-06
1.36057 	1.17376e-05 	-4.78987e-06 	2.87728e-06 	4.6568e-06 	-4.64437e-06 	7.93697e-06
1.37401 	1.1653e-05 	-4.9629e-06 	2.81219e-06 	4.81152e-06 	-4.64685e-06 	7.81678e-06
1.38745 	1.15549e-05 	-5.15593e-06 	2.7529e-06 	4.97281e-06 	-4.65843e-06 	7.68879e-06
1.40114 	1.14516e-05 	-5.30877e-06 	2.6798e-06 	5.1469e-06 	-4.65065e-06 	7.56431e-06
1.41483 	1.13323e-05 	-5.48136e-06 	2.61318e-06 	5.32939e-06 	-4.65253e-06 	7.43175e-06
1.42877 	1.11728e-05 	-5.61673e-06 	2.54425e-06 	5.55187e-06 	-4.62723e-06 	7.30944e-06
1.4427 	1.10055e-05 	-5.76821e-06 	2.4778e-06 	5.77526e-06 	-4.61335e-06 	7.17821e-06
1.4569 	1.09705e-05 	-5.87142e-06 	2.36048e-06 	5.97903e-06 	-4.60154e-06 	7.02888e-06
1.47109 	1.08927e-05 	-5.97608e-06 	2.24559e-06 	6.1846e-06 	-4.5949e-06 	6.87493e-06
1.48555 	1.04426e-05 	-6.24269e-06 	2.41941e-06 	6.65657e-06 	-4.37682e-06 	6.78311e-06
1.5 	9.92842e-06 	-6.54415e-06 	2.59964e-06 	7.11499e-06 	-4.16725e-06 	6.69467e-06
1.50339 	9.75515e-06 	-6.60751e-06 	2.60517e-06 	7.20801e-06 	-4.1222e-06 	6.65679e-06
1.50679 	9.58188e-06 	-6.67086e-06 	2.6107e-06 	7.30103e-06 	-4.07714e-06 	6.61891e-06
1.5136 	9.22083e-06 	-6.77616e-06 	2.62449e-06 	7.50189e-06 	-3.9824e-06 	6.54125e-06
1.52041 	8.85977e-06 	-6.88146e-06 	2.63829e-06 	7.70275e-06 	-3.88766e-06 	6.46359e-06
1.52046 	8.85975e-06 	-6.88178e-06 	2.63745e-06 	7.70294e-06 	-3.88809e-06 	6.46305e-06
1.5205 	8.85973e-06 	-6.88209e-06 	2.63661e-06 	7.70312e-06 	-3.88852e-06 	6.46251e-06
1.52751 	8.86229e-06 	-6.92933e-06 	2.51018e-06 	7.71739e-06 	-3.95772e-06 	6.38809e-06
1.53451 	8.86578e-06 	-6.97685e-06 	2.38397e-06 	7.73196e-06 	-4.02694e-06 	6.31362e-06
1.53809 	8.85609e-06 	-6.98555e-06 	2.30839e-06 	7.71859e-06 	-4.06458e-06 	6.28391e-06
1.54167 	8.8464e-06 	-6.99425e-06 	2.2328e-06 	7.70523e-06 	-4.10222e-06 	6.2542e-06
1.54524 	8.81517e-06 	-7.01895e-06 	2.21262e-06 	7.76807e-06 	-4.10084e-06 	6.22124e-06
1.54882 	8.78393e-06 	-7.04365e-06 	2.19243e-06 	7.83091e-06 	-4.09946e-06 	6.18828e-06
1.55612 	8.65714e-06 	-7.09666e-06 	2.15322e-06 	7.95964e-06 	-4.09091e-06 	6.12458e-06
1.56343 	8.53436e-06 	-7.14964e-06 	2.11403e-06 	8.08814e-06 	-4.08259e-06 	6.06125e-06
1.56363 	8.53012e-06 	-7.15127e-06 	2.11303e-06 	8.09151e-06 	-4.08226e-06 	6.05965e-06
1.56383 	8.52588e-06 	-7.1529e-06 	2.11203e-06 	8.09488e-06 	-4.08193e-06 	6.05805e-06
1.57109 	8.52719e-06 	-7.18503e-06 	2.07383e-06 	8.16748e-06 	-4.08221e-06 	6.00218e-06
1.57835 	8.52849e-06 	-7.21717e-06 	2.03562e-06 	8.24008e-06 	-4.08249e-06 	5.94632e-06
1.58265 	8.52226e-06 	-7.22809e-06 	2.00869e-06 	8.274e-06 	-4.08286e-06 	5.91281e-06
1.58696 	8.51602e-06 	-7.23902e-06 	1.98176e-06 	8.30792e-06 	-4.08322e-06 	5.8793e-06
1.59027 	8.51944e-06 	-7.2498e-06 	1.96445e-06 	8.33283e-06 	-4.08265e-06 	5.85395e-06
1.59359 	8.52286e-06 	-7.26059e-06 	1.94715e-06 	8.35774e-06 	-4.08207e-06 	5.8286e-06
1.60137 	8.5195e-06 	-7.27099e-06 	1.90163e-06 	8.39859e-06 	-4.08107e-06 	5.76919e-06
1.60915 	8.52436e-06 	-7.2844e-06 	1.85726e-06 	8.44006e-06 	-4.07973e-06 	5.71174e-06
1.61013 	8.52419e-06 	-7.2843e-06 	1.85163e-06 	8.44313e-06 	-4.08012e-06 	5.70572e-06
1.61111 	8.52403e-06 	-7.28421e-06 	1.846e-06 	8.44619e-06 	-4.08051e-06 	5.6997e-06
1.61807 	8.51195e-06 	-7.28629e-06 	1.80523e-06 	8.48973e-06 	-4.08538e-06 	5.6557e-06
1.62504 	8.49987e-06 	-7.28838e-06 	1.76447e-06 	8.53328e-06 	-4.09025e-06 	5.61169e-06
1.6307 	8.4808e-06 	-7.2777e-06 	1.72808e-06 	8.55869e-06 	-4.09244e-06 	5.57565e-06
1.63636 	8.46173e-06 	-7.26701e-06 	1.69168e-06 	8.58409e-06 	-4.09463e-06 	5.53961e-06
1.63881 	8.44536e-06 	-7.26109e-06 	1.67417e-06 	8.60219e-06 	-4.09651e-06 	5.52391e-06
1.64127 	8.42899e-06 	-7.25518e-06 	1.65665e-06 	8.62029e-06 	-4.09839e-06 	5.50821e-06
1.64955 	8.38044e-06 	-7.20968e-06 	1.58946e-06 	8.67224e-06 	-4.09747e-06 	5.45184e-06
1.65784 	8.35503e-06 	-7.18309e-06 	1.5164e-06 	8.74686e-06 	-4.08848e-06 	5.40307e-06
1.66031 	8.3665e-06 	-7.17412e-06 	1.49025e-06 	8.77249e-06 	-4.08364e-06 	5.38969e-06
1.66279 	8.37796e-06 	-7.16516e-06 	1.4641e-06 	8.79812e-06 	-4.0788e-06 	5.3763e-06
1.66878 	8.36344e-06 	-7.13324e-06 	1.39987e-06 	8.87161e-06 	-4.06805e-06 	5.34339e-06
1.67476 	8.34893e-06 	-7.10133e-06 	1.33563e-06 	8.9451e-06 	-4.0573e-06 	5.31048e-06
1.68262 	8.37269e-06 	-7.06678e-06 	1.2175e-06 	9.03716e-06 	-4.03988e-06 	5.29717e-06
1.69048 	8.39644e-06 	-7.03223e-06 	1.09937e-06 	9.12923e-06 	-4.02246e-06 	5.28386e-06
1.69126 	8.39561e-06 	-7.02963e-06 	1.08949e-06 	9.14184e-06 	-4.02031e-06 	5.28057e-06
1.69205 	8.39477e-06 	-7.02703e-06 	1.07961e-06 	9.15446e-06 	-4.01816e-06 	5.27728e-06
1.70087 	8.26965e-06 	-6.94637e-06 	1.02666e-06 	9.24121e-06 	-4.04315e-06 	5.23418e-06
1.7097 	8.11081e-06 	-6.83929e-06 	9.9154e-07 	9.30894e-06 	-4.08583e-06 	5.18689e-06
1.7146 	7.8572e-06 	-6.72162e-06 	1.07742e-06 	9.30564e-06 	-4.14702e-06 	5.0906e-06
1.71951 	7.60359e-06 	-6.60396e-06 	1.1633e-06 	9.30235e-06 	-4.20822e-06 	4.99431e-06
1.72362 	7.4943e-06 	-6.51769e-06 	1.20465e-06 	9.29786e-06 	-4.26341e-06 	4.91748e-06
1.72772 	7.38501e-06 	-6.43143e-06 	1.24601e-06 	9.29337e-06 	-4.31861e-06 	4.84064e-06
1.73693 	6.87703e-06 	-6.16552e-06 	1.46207e-06 	9.30075e-06 	-4.4382e-06 	4.60326e-06
1.74613 	6.42896e-06 	-5.93463e-06 	1.68572e-06 	9.32996e-06 	-4.55614e-06 	4.33801e-06
1.74806 	6.38071e-06 	-5.88538e-06 	1.69506e-06 	9.37215e-06 	-4.56507e-06 	4.31359e-06
1.75 	6.33246e-06 	-5.83612e-06 	1.7044e-06 	9.41434e-06 	-4.57401e-06 	4.28917e-06
1.75746 	6.12042e-06 	-5.57536e-06 	1.75262e-06 	9.54654e-06 	-4.62934e-06 	4.19183e-06
1.76493 	5.90839e-06 	-5.3146e-06 	1.80083e-06 	9.67875e-06 	-4.68466e-06 	4.09448e-06
1.77349 	5.80526e-06 	-5.18716e-06 	1.80735e-06 	9.82901e-06 	-4.66714e-06 	4.00069e-06
1.78205 	5.70212e-06 	-5.05972e-06 	1.81387e-06 	9.97928e-06 	-4.64962e-06 	3.9069e-06
1.78309 	5.67514e-06 	-5.04886e-06 	1.82108e-06 	9.99526e-06 	-4.6473e-06 	3.89244e-06
1.78412 	5.64816e-06 	-5.038e-06 	1.8283e-06 	1.00112e-05 	-4.64498e-06 	3.87799e-06
1.79393 	5.51572e-06 	-5.03367e-06 	1.78326e-06 	9.99832e-06 	-4.59433e-06 	3.81767e-06
1.80373 	5.39685e-06 	-5.03913e-06 	1.73455e-06 	9.97341e-06 	-4.54268e-06 	3.75959e-06
1.80976 	5.31814e-06 	-5.01043e-06 	1.70539e-06 	9.98201e-06 	-4.51626e-06 	3.72477e-06
1.81579 	5.23943e-06 	-4.98174e-06 	1.67624e-06 	9.99061e-06 	-4.48985e-06 	3.68995e-06
1.81977 	5.16469e-06 	-4.97546e-06 	1.65957e-06 	9.99487e-06 	-4.47356e-06 	3.66707e-06
1.82375 	5.08994e-06 	-4.96917e-06 	1.6429e-06 	9.99914e-06 	-4.45726e-06 	3.64418e-06
1.83397 	4.91611e-06 	-4.91543e-06 	1.59899e-06 	1.00141e-05 	-4.40984e-06 	3.5807e-06
1.8442 	4.75654e-06 	-4.87262e-06 	1.55329e-06 	1.00319e-05 	-4.36356e-06 	3.51983e-06
1.84777 	4.7014e-06 	-4.84977e-06 	1.53873e-06 	1.00355e-05 	-4.34617e-06 	3.49873e-06
1.85135 	4.64627e-06 	-4.82693e-06 	1.52417e-06 	1.0039e-05 	-4.32879e-06 	3.47763e-06
1.85821 	4.53424e-06 	-4.78128e-06 	1.49493e-06 	1.00549e-05 	-4.29725e-06 	3.43695e-06
1.86508 	4.42221e-06 	-4.73562e-06 	1.46568e-06 	1.00708e-05 	-4.26572e-06 	3.39627e-06
1.87574 	4.25798e-06 	-4.66135e-06 	1.42101e-06 	1.00855e-05 	-4.21353e-06 	3.33542e-06
1.8864 	4.0966e-06 	-4.58949e-06 	1.37743e-06 	1.01021e-05 	-4.1621e-06 	3.27516e-06
1.88764 	4.08045e-06 	-4.57888e-06 	1.37282e-06 	1.01043e-05 	-4.15647e-06 	3.26809e-06
1.88889 	4.0643e-06 	-4.56828e-06 	1.36821e-06 	1.01066e-05 	-4.15085e-06 	3.26101e-06
1.89853 	3.92912e-06 	-4.48315e-06 	1.3297e-06 	1.01331e-05 	-4.10902e-06 	3.2061e-06
1.90818 	3.79394e-06 	-4.39803e-06 	1.29119e-06 	1.01597e-05 	-4.0672e-06 	3.15118e-06
1.91837 	3.67534e-06 	-4.28561e-06 	1.25164e-06 	1.01522e-05 	-4.02041e-06 	3.09499e-06
1.92857 	3.55674e-06 	-4.17318e-06 	1.2121e-06 	1.01447e-05 	-3.97361e-06 	3.03879e-06
1.92949 	3.54534e-06 	-4.16298e-06 	1.20832e-06 	1.01442e-05 	-3.96936e-06 	3.03368e-06
1.93041 	3.53393e-06 	-4.15278e-06 	1.20455e-06 	1.01438e-05 	-3.96511e-06 	3.02857e-06
1.94177 	3.42783e-06 	-4.04858e-06 	1.16514e-06 	1.01357e-05 	-3.90721e-06 	2.972e-06
1.95312 	3.32434e-06 	-3.94645e-06 	1.1266e-06 	1.01303e-05 	-3.85019e-06 	2.91602e-06
1.96186 	3.25831e-06 	-3.85083e-06 	1.09941e-06 	1.01033e-05 	-3.79578e-06 	2.87479e-06
1.97059 	3.19227e-06 	-3.7552e-06 	1.07221e-06 	1.00764e-05 	-3.74137e-06 	2.83356e-06
1.97345 	3.16856e-06 	-3.72108e-06 	1.06249e-06 	1.00729e-05 	-3.72396e-06 	2.81957e-06
1.97632 	3.14486e-06 	-3.68696e-06 	1.05277e-06 	1.00695e-05 	-3.70655e-06 	2.80557e-06
1.98816 	3.03767e-06 	-3.68432e-06 	1.01455e-06 	1.01487e-05 	-3.65717e-06 	2.77004e-06
2 	2.93259e-06 	-3.68782e-06 	9.77274e-07 	1.02276e-05 	-3.60875e-06 	2.73692e-06
