0 1e-10
0.00128482 0.000759376
0.00256965 0.00151875
0.00387803 0.00168059
0.00518642 0.00184243
0.00651881 0.00181936
0.00785119 0.00179628
0.00920802 0.00170561
0.0105648 0.00161494
0.0119465 0.00156065
0.0133283 0.00150636
0.0147353 0.00154845
0.0161424 0.00159055
0.0175752 0.0017275
0.0190081 0.00186445
0.0204672 0.00204487
0.0219263 0.00222528
0.0234122 0.0023782
0.0248981 0.00253112
0.0264113 0.00261465
0.0279244 0.00269818
0.0294653 0.00269323
0.0310063 0.00268827
0.0325754 0.00261414
0.0341446 0.00254001
0.0357425 0.0024716
0.0373405 0.00240319
0.0389677 0.00239501
0.040595 0.00238683
0.0422521 0.00243652
0.0439092 0.00248621
0.0455967 0.00254979
0.0472842 0.00261336
0.0490026 0.00263993
0.0507211 0.00266651
0.052471 0.00263723
0.054221 0.00260794
0.056003 0.00255483
0.0577851 0.00250171
0.0595998 0.00246839
0.0614146 0.00243507
0.0632626 0.00244437
0.0651106 0.00245367
0.0669925 0.00254226
0.0688745 0.00263085
0.0707909 0.0028187
0.0727073 0.00300655
0.0746589 0.00322252
0.0766105 0.00343849
0.0785979 0.00354948
0.0805853 0.00366046
0.0826091 0.00358284
0.0846329 0.00350523
0.0866939 0.00323575
0.0887548 0.00296628
0.0908536 0.00263005
0.0929523 0.00229383
0.0950896 0.0020516
0.0972268 0.00180937
0.0994033 0.00170853
0.10158 0.00160768
0.103796 0.00159563
0.106012 0.00158357
0.108269 0.00158674
0.110526 0.00158991
0.112825 0.00157574
0.115123 0.00156158
0.117464 0.00152463
0.119804 0.00148767
0.122188 0.00143566
0.124571 0.00138364
0.126999 0.00133993
0.129426 0.00129621
0.131897 0.0012797
0.134369 0.00126319
0.136886 0.00126382
0.139403 0.00126445
0.141967 0.00127217
0.14453 0.00127989
0.14975 0.00130796
0.155066 0.00135573
0.16048 0.0014246
0.165993 0.00151092
0.171607 0.00161433
0.177324 0.00172772
0.183146 0.00182764
0.189075 0.00189344
0.195113 0.00193293
0.201261 0.00195961
0.207522 0.00196998
0.213898 0.00196257
0.22039 0.00194248
0.220635 0.00194072
0.223819 0.00191787
0.227002 0.00189502
0.230244 0.00185463
0.233486 0.00181423
0.233611 0.00181267
0.233735 0.00181112
0.240592 0.00174339
0.247574 0.00174181
0.254685 0.0018252
0.261925 0.00193572
0.269299 0.0019812
0.276808 0.00198024
0.284454 0.00200651
0.292241 0.00204929
0.300171 0.00204005
0.308246 0.00198664
0.316469 0.00198943
0.324843 0.00211539
0.333371 0.00239585
0.342055 0.00286044
0.350898 0.0036224
0.359903 0.00495613
0.364489 0.00557714
0.369074 0.00619815
0.378413 0.00636111
0.387923 0.00544883
0.397608 0.00432667
0.40747 0.00371671
0.417513 0.00352226
0.42774 0.00353678
0.438155 0.00357532
0.448761 0.00353389
0.459561 0.00344989
0.47056 0.00309753
0.48176 0.00240079
0.493165 0.00180152
0.50478 0.0015337
0.516608 0.00150545
0.528653 0.00155256
0.540918 0.00154408
0.553409 0.00149654
0.566129 0.00154418
0.579082 0.00188555
0.592272 0.00271082
0.605705 0.00406082
0.619384 0.00561327
0.633314 0.00693966
0.647499 0.0076484
0.661944 0.00747304
0.676655 0.00643614
0.691635 0.00512489
0.70689 0.00433639
0.722424 0.00408119
0.738244 0.00391704
0.754354 0.00344253
0.770759 0.00250815
0.787465 0.00168561
0.804478 0.00144398
0.821802 0.00155918
0.830623 0.00171391
0.839445 0.00186864
0.857411 0.00234452
0.875706 0.00280497
0.894337 0.00307559
0.91331 0.00305439
0.93263 0.00271912
0.952305 0.00257063
0.972341 0.00279296
0.992745 0.00278037
1.01352 0.0025646
1.03468 0.00254929
1.05623 0.00282049
1.07817 0.0033487
1.08934 0.0033906
1.10051 0.0034325
1.12327 0.00213416
1.14644 0.000793231
1.17004 0.000465391
1.19407 0.000323853
1.21854 0.000210305
1.24345 0.000152956
1.25614 0.000141715
1.26883 0.000130473
1.29467 0.000121306
1.32099 0.000116499
1.33439 0.000114359
1.34778 0.000112219
1.36143 0.000109788
1.37507 0.000107356
1.40286 0.000103437
1.43116 0.00010171
1.45998 0.000101541
1.48933 0.000102545
1.51921 0.00010426
1.54965 0.000105599
1.58064 0.000106225
1.6122 0.000106295
1.64434 0.000106096
1.67707 0.000106013
1.69373 0.000106145
1.7104 0.000106278
1.72737 0.000106702
1.74434 0.000107126
1.7789 0.000108613
1.81409 0.000110615
1.83202 0.000111809
1.84994 0.000113004
1.88644 0.000115581
1.9236 0.000118404
1.96146 0.000121648
2 0.000124232
