0 	0 	0 	0
0.00184055 	0.0602429 	5.15388e-05 	0.0147098
0.00368111 	0.119479 	0.000118228 	0.0263186
0.00558849 	0.175959 	0.000237923 	0.041174
0.00749587 	0.231385 	0.000366806 	0.0538117
0.00947248 	0.276664 	0.000556397 	0.066772
0.0114491 	0.320969 	0.000746051 	0.078728
0.0121669 	0.3323 	0.000831495 	0.0822366
0.0128847 	0.343631 	0.000916938 	0.0857452
0.0128847 	0.343631 	0.000916938 	0.0857452
0.0142153 	0.364066 	0.00105895 	0.0920968
0.0155459 	0.384502 	0.00120097 	0.0984484
0.0176687 	0.407401 	0.00146059 	0.106121
0.0183037 	0.414151 	0.00152754 	0.10846
0.0190476 	0.422059 	0.00160597 	0.111201
0.0197915 	0.429966 	0.0016844 	0.113941
0.0197915 	0.429966 	0.0016844 	0.113941
0.0219913 	0.447249 	0.00195859 	0.120203
0.0241911 	0.464357 	0.00218658 	0.126686
0.0264709 	0.478054 	0.00247426 	0.132035
0.0287506 	0.491665 	0.00271045 	0.137592
0.0311131 	0.502964 	0.00301064 	0.142316
0.0334755 	0.514231 	0.00325847 	0.14721
0.0359238 	0.523868 	0.00356928 	0.151483
0.038372 	0.533506 	0.00382983 	0.155883
0.0405947 	0.540906 	0.00411758 	0.159321
0.0405947 	0.540906 	0.00411758 	0.159321
0.0420205 	0.545668 	0.00427194 	0.161582
0.0428174 	0.548329 	0.00435822 	0.162846
0.0434463 	0.550429 	0.0044263 	0.163844
0.0460755 	0.558016 	0.00476118 	0.167522
0.0464014 	0.558961 	0.00479726 	0.167985
0.0475531 	0.5623 	0.00492479 	0.169618
0.0487048 	0.565639 	0.00505233 	0.171252
0.0487048 	0.565639 	0.00505233 	0.171252
0.0514295 	0.572589 	0.00540233 	0.174731
0.0514296 	0.572589 	0.00540233 	0.174731
0.0541543 	0.579583 	0.00571255 	0.17823
0.0541543 	0.579583 	0.00571255 	0.17823
0.056978 	0.586058 	0.00607857 	0.181553
0.0598016 	0.592581 	0.00641001 	0.184867
0.0627278 	0.598704 	0.00679326 	0.188068
0.0656539 	0.604867 	0.00714748 	0.191235
0.0686863 	0.610733 	0.0075497 	0.19434
0.0717187 	0.616619 	0.00792879 	0.197388
0.0748612 	0.622297 	0.00835084 	0.200417
0.0780037 	0.627968 	0.00875629 	0.20337
0.0805714 	0.63235 	0.00910602 	0.205726
0.0831391 	0.636686 	0.00944645 	0.207993
0.083828 	0.63785 	0.00953779 	0.208601
0.0845169 	0.639013 	0.00962913 	0.209209
0.0870048 	0.643058 	0.00996794 	0.211381
0.0894926 	0.64701 	0.0103052 	0.213453
0.0903796 	0.64842 	0.0104255 	0.214192
0.0912666 	0.649829 	0.0105458 	0.21493
0.094764 	0.65522 	0.011022 	0.217794
0.0982613 	0.660467 	0.0115044 	0.220557
0.0993197 	0.662055 	0.0116464 	0.221394
0.100378 	0.663643 	0.0117883 	0.222231
0.102944 	0.667322 	0.012144 	0.224179
0.10551 	0.670967 	0.0125021 	0.226112
0.107621 	0.674024 	0.0127813 	0.227702
0.109731 	0.676922 	0.0130732 	0.229242
0.111377 	0.67914 	0.0133039 	0.230431
0.113022 	0.681358 	0.0135347 	0.231619
0.116091 	0.685615 	0.013937 	0.233818
0.119159 	0.68955 	0.0143667 	0.235956
0.119983 	0.690606 	0.014482 	0.23653
0.120806 	0.691662 	0.0145973 	0.237103
0.123073 	0.694732 	0.0148854 	0.238662
0.12534 	0.697577 	0.0151936 	0.240202
0.127107 	0.699737 	0.0154389 	0.241397
0.128874 	0.701896 	0.0156842 	0.242592
0.132902 	0.707017 	0.0161967 	0.245249
0.13693 	0.711722 	0.0167474 	0.24791
0.137082 	0.711899 	0.0167682 	0.248011
0.137234 	0.712077 	0.016789 	0.248111
0.139668 	0.71516 	0.0170803 	0.249653
0.142102 	0.717973 	0.0173972 	0.251223
0.144 	0.720096 	0.0176508 	0.252455
0.145897 	0.722219 	0.0179043 	0.253687
0.150387 	0.727516 	0.0184408 	0.256467
0.154876 	0.732344 	0.0190226 	0.259344
0.159528 	0.737643 	0.0195555 	0.262148
0.16418 	0.742471 	0.0201359 	0.265103
0.169001 	0.747773 	0.0206618 	0.267937
0.173822 	0.752619 	0.0212364 	0.270978
0.178818 	0.757926 	0.0217519 	0.273847
0.183814 	0.762812 	0.0223164 	0.276978
0.187896 	0.76708 	0.0227017 	0.279203
0.191979 	0.770983 	0.0231356 	0.281745
0.193074 	0.77203 	0.0232521 	0.282427
0.194169 	0.773077 	0.0233685 	0.283109
0.197184 	0.776138 	0.0236296 	0.284676
0.200199 	0.779026 	0.0239196 	0.286466
0.20255 	0.781234 	0.024153 	0.287918
0.2049 	0.783441 	0.0243865 	0.289371
0.21046 	0.788775 	0.0248527 	0.292355
0.21602 	0.793924 	0.025366 	0.29576
0.221782 	0.799263 	0.0258114 	0.29878
0.227544 	0.804536 	0.026303 	0.302265
0.22859 	0.805465 	0.0263736 	0.302761
0.229637 	0.806394 	0.0264442 	0.303256
0.234562 	0.810812 	0.0268072 	0.305933
0.239487 	0.815266 	0.0271931 	0.308864
0.2403 	0.81595 	0.0272427 	0.309235
0.241113 	0.816635 	0.0272923 	0.309606
0.246488 	0.821289 	0.0276481 	0.312392
0.251863 	0.826076 	0.0280324 	0.315517
0.258275 	0.831312 	0.0284018 	0.318558
0.264688 	0.836904 	0.0288171 	0.322169
0.269928 	0.840843 	0.0290754 	0.324405
0.275168 	0.845279 	0.0293799 	0.327232
0.276574 	0.84647 	0.0294616 	0.32799
0.27798 	0.84766 	0.0295432 	0.328749
0.278708 	0.848158 	0.0295738 	0.32903
0.279437 	0.848656 	0.0296044 	0.329311
0.285595 	0.853226 	0.0298894 	0.332033
0.291753 	0.858228 	0.0302066 	0.335174
0.29889 	0.862994 	0.0304827 	0.337971
0.306027 	0.868475 	0.0308037 	0.341357
0.313423 	0.872981 	0.0310466 	0.344005
0.320819 	0.878256 	0.031332 	0.347213
0.328484 	0.882451 	0.0315413 	0.349682
0.336148 	0.887421 	0.0317895 	0.352661
0.342411 	0.890291 	0.03192 	0.354355
0.348674 	0.893897 	0.032085 	0.35649
0.350354 	0.894864 	0.0321293 	0.357063
0.352034 	0.895831 	0.0321736 	0.357636
0.35666 	0.897606 	0.0322448 	0.3587
0.361285 	0.899784 	0.032334 	0.359986
0.364891 	0.901585 	0.0324082 	0.361045
0.368496 	0.903386 	0.0324823 	0.362103
0.377027 	0.906424 	0.032586 	0.363935
0.385557 	0.910048 	0.0327142 	0.366062
0.385557 	0.910048 	0.0327142 	0.366062
0.394396 	0.9127 	0.0327828 	0.367687
0.403236 	0.915848 	0.0328701 	0.369547
0.410717 	0.917648 	0.032897 	0.37069
0.418198 	0.919858 	0.0329362 	0.372014
0.419878 	0.920354 	0.0329451 	0.372311
0.421557 	0.92085 	0.0329539 	0.372609
0.428442 	0.922192 	0.0329561 	0.373497
0.435327 	0.923864 	0.032964 	0.374523
0.437935 	0.924497 	0.032967 	0.374911
0.440544 	0.92513 	0.03297 	0.3753
0.450382 	0.92682 	0.0329466 	0.376434
0.46022 	0.928766 	0.0329222 	0.37767
0.470415 	0.930205 	0.0328722 	0.378678
0.48061 	0.931838 	0.0328144 	0.379762
0.482062 	0.931998 	0.032805 	0.379883
0.483513 	0.932157 	0.0327955 	0.380003
0.492627 	0.933249 	0.0327273 	0.380794
0.501741 	0.93443 	0.0326504 	0.381618
0.51269 	0.935471 	0.0325522 	0.382426
0.523639 	0.936622 	0.0324336 	0.383274
0.531868 	0.937246 	0.0323537 	0.383796
0.540096 	0.937953 	0.0322477 	0.384346
0.543214 	0.938221 	0.0322076 	0.384554
0.546332 	0.938489 	0.0321674 	0.384762
0.558091 	0.939258 	0.032027 	0.385427
0.569849 	0.940092 	0.0318551 	0.386113
0.582034 	0.940758 	0.0316953 	0.386721
0.594219 	0.941478 	0.0314992 	0.387346
0.606847 	0.942056 	0.0313208 	0.387906
0.619475 	0.942681 	0.0311015 	0.388481
0.632561 	0.943185 	0.0309048 	0.388998
0.645647 	0.94373 	0.0306629 	0.389529
0.648698 	0.943825 	0.0306194 	0.389636
0.65175 	0.943919 	0.0305758 	0.389742
0.66226 	0.944274 	0.0303887 	0.39012
0.67277 	0.944644 	0.0301839 	0.390502
0.67512 	0.944704 	0.0301488 	0.390575
0.677471 	0.944765 	0.0301137 	0.390649
0.689174 	0.945092 	0.029903 	0.391024
0.700877 	0.945437 	0.0296641 	0.391408
0.715441 	0.945763 	0.0294124 	0.391822
0.730005 	0.946122 	0.0291022 	0.392254
0.745097 	0.9464 	0.0288313 	0.392641
0.76019 	0.946706 	0.0284969 	0.393046
0.770223 	0.94685 	0.0283291 	0.393273
0.780256 	0.947013 	0.0281044 	0.393516
0.785864 	0.947105 	0.0279755 	0.393652
0.791472 	0.947197 	0.0278466 	0.393789
0.80391 	0.947341 	0.0276248 	0.394043
0.816348 	0.947503 	0.0273292 	0.394317
0.820119 	0.947552 	0.0272396 	0.3944
0.823889 	0.947601 	0.02715 	0.394484
0.840686 	0.947758 	0.0268173 	0.394797
0.857483 	0.947928 	0.0264056 	0.39513
0.87489 	0.948052 	0.0260513 	0.395419
0.892297 	0.948184 	0.0256127 	0.395725
0.910336 	0.94828 	0.0252366 	0.395989
0.928375 	0.94838 	0.0247715 	0.396266
0.947069 	0.948452 	0.0243739 	0.396504
0.965762 	0.948526 	0.0238833 	0.396751
0.985136 	0.948578 	0.0234647 	0.396961
1.00451 	0.948632 	0.0229502 	0.397174
1.02459 	0.948667 	0.0225113 	0.397356
1.04466 	0.948705 	0.0219747 	0.397534
1.06547 	0.948726 	0.0215165 	0.397687
1.08627 	0.948753 	0.0209599 	0.397828
1.10783 	0.948762 	0.0204837 	0.39795
1.12939 	0.94878 	0.0199097 	0.398052
1.15174 	0.94878 	0.0194172 	0.398142
1.17408 	0.948793 	0.0188286 	0.398204
1.19723 	0.948786 	0.0183215 	0.398261
1.22038 	0.948795 	0.0177214 	0.398282
1.24438 	0.948783 	0.0172018 	0.398305
1.26837 	0.948792 	0.0165936 	0.398284
1.29324 	0.948778 	0.016064 	0.398273
1.3181 	0.948789 	0.0154515 	0.398208
1.34387 	0.948774 	0.0149147 	0.398161
1.36964 	0.94879 	0.0143017 	0.398053
1.39635 	0.948776 	0.0137609 	0.397971
1.42305 	0.948799 	0.0131512 	0.397818
1.42685 	0.948795 	0.0130803 	0.397807
1.43065 	0.948791 	0.0130095 	0.397795
1.43275 	0.948788 	0.0129704 	0.397788
1.45557 	0.948793 	0.012504 	0.397665
1.4784 	0.948819 	0.0120073 	0.397504
1.48665 	0.948811 	0.0118584 	0.39747
1.4949 	0.948803 	0.0117095 	0.397436
1.52571 	0.948839 	0.0110842 	0.397195
1.52571 	0.948839 	0.0110842 	0.397195
1.53073 	0.948846 	0.0109807 	0.397154
1.53073 	0.948846 	0.0109807 	0.397154
1.53576 	0.948854 	0.0108772 	0.397112
1.53576 	0.948854 	0.0108772 	0.397112
1.56548 	0.948853 	0.0103435 	0.396923
1.56548 	0.948853 	0.0103435 	0.396923
1.5952 	0.948905 	0.00976836 	0.396644
1.5952 	0.948905 	0.00976836 	0.396644
1.60599 	0.948899 	0.00958933 	0.396581
1.61678 	0.948893 	0.00941029 	0.396517
1.62599 	0.948912 	0.00924408 	0.396422
1.65679 	0.948976 	0.00868845 	0.396106
