0 	0 	0 	0 	0 	0 	0
0.00128482 	2.06523e-06 	-1.20898e-08 	-4.01103e-07 	2.67871e-09 	2.8652e-09 	3.1785e-06
0.00256965 	4.13046e-06 	-2.41796e-08 	-8.02205e-07 	5.35743e-09 	5.73041e-09 	6.357e-06
0.00387803 	5.17226e-06 	-3.55745e-08 	-8.2775e-07 	1.70144e-08 	1.09046e-08 	1.06876e-05
0.00518642 	6.21405e-06 	-4.69695e-08 	-8.53294e-07 	2.86713e-08 	1.60788e-08 	1.50183e-05
0.00651881 	7.8949e-06 	-2.75953e-08 	-8.49691e-07 	5.54395e-08 	2.31315e-08 	1.93114e-05
0.00785119 	9.57575e-06 	-8.22115e-09 	-8.46088e-07 	8.22077e-08 	3.01842e-08 	2.36045e-05
0.00920802 	1.20357e-05 	6.66207e-08 	-7.74163e-07 	1.20151e-07 	3.86555e-08 	2.69617e-05
0.0105648 	1.44956e-05 	1.41463e-07 	-7.02238e-07 	1.58094e-07 	4.71268e-08 	3.03189e-05
0.0119465 	1.75647e-05 	2.57791e-07 	-5.13305e-07 	1.9417e-07 	5.73317e-08 	3.24814e-05
0.0133283 	2.06338e-05 	3.74119e-07 	-3.24372e-07 	2.30245e-07 	6.75365e-08 	3.46439e-05
0.0147353 	2.39887e-05 	4.86789e-07 	-1.92569e-08 	2.53138e-07 	7.86266e-08 	3.57049e-05
0.0161424 	2.73435e-05 	5.99458e-07 	2.85858e-07 	2.76031e-07 	8.97166e-08 	3.67659e-05
0.0175752 	3.06561e-05 	6.70834e-07 	6.5146e-07 	2.8361e-07 	9.92462e-08 	3.69519e-05
0.0190081 	3.39688e-05 	7.4221e-07 	1.01706e-06 	2.9119e-07 	1.08776e-07 	3.71379e-05
0.0204672 	3.69838e-05 	7.56593e-07 	1.37884e-06 	2.86828e-07 	1.14837e-07 	3.66882e-05
0.0219263 	3.99989e-05 	7.70976e-07 	1.74061e-06 	2.82466e-07 	1.20899e-07 	3.62384e-05
0.0234122 	4.25748e-05 	7.23012e-07 	2.05989e-06 	2.70442e-07 	1.22211e-07 	3.53652e-05
0.0248981 	4.51506e-05 	6.75049e-07 	2.37917e-06 	2.58418e-07 	1.23523e-07 	3.44919e-05
0.0264113 	4.71839e-05 	5.66214e-07 	2.63869e-06 	2.44409e-07 	1.19492e-07 	3.33728e-05
0.0279244 	4.92172e-05 	4.5738e-07 	2.89821e-06 	2.304e-07 	1.15461e-07 	3.22537e-05
0.0294653 	5.06294e-05 	2.94684e-07 	3.09347e-06 	2.18736e-07 	1.0594e-07 	3.10273e-05
0.0310063 	5.20416e-05 	1.31988e-07 	3.28873e-06 	2.07072e-07 	9.64194e-08 	2.98008e-05
0.0325754 	5.27751e-05 	-7.46275e-08 	3.41996e-06 	2.00397e-07 	8.17231e-08 	2.85647e-05
0.0341446 	5.35086e-05 	-2.81243e-07 	3.55119e-06 	1.93723e-07 	6.70267e-08 	2.73286e-05
0.0357425 	5.35158e-05 	-5.19932e-07 	3.61764e-06 	1.93588e-07 	4.78581e-08 	2.61444e-05
0.0373405 	5.3523e-05 	-7.58622e-07 	3.68409e-06 	1.93453e-07 	2.86894e-08 	2.49602e-05
0.0389677 	5.27208e-05 	-1.0129e-06 	3.67973e-06 	2.0078e-07 	6.40497e-09 	2.38615e-05
0.040595 	5.19186e-05 	-1.26718e-06 	3.67536e-06 	2.08107e-07 	-1.58795e-08 	2.27628e-05
0.0422521 	5.02854e-05 	-1.51328e-06 	3.60032e-06 	2.23184e-07 	-3.93473e-08 	2.17648e-05
0.0439092 	4.86523e-05 	-1.75939e-06 	3.52527e-06 	2.3826e-07 	-6.2815e-08 	2.07667e-05
0.0455967 	4.64253e-05 	-1.97639e-06 	3.39222e-06 	2.60574e-07 	-8.55759e-08 	1.98733e-05
0.0472842 	4.41983e-05 	-2.19339e-06 	3.25918e-06 	2.82888e-07 	-1.08337e-07 	1.89799e-05
0.0490026 	4.1631e-05 	-2.37195e-06 	3.07611e-06 	3.11855e-07 	-1.28952e-07 	1.8189e-05
0.0507211 	3.90637e-05 	-2.55051e-06 	2.89304e-06 	3.40823e-07 	-1.49566e-07 	1.73982e-05
0.052471 	3.62396e-05 	-2.68387e-06 	2.66485e-06 	3.76563e-07 	-1.66898e-07 	1.67065e-05
0.054221 	3.34156e-05 	-2.81723e-06 	2.43667e-06 	4.12303e-07 	-1.84229e-07 	1.60149e-05
0.056003 	3.04405e-05 	-2.89381e-06 	2.17663e-06 	4.55061e-07 	-1.97067e-07 	1.54192e-05
0.0577851 	2.74653e-05 	-2.97038e-06 	1.91658e-06 	4.97819e-07 	-2.09905e-07 	1.48235e-05
0.0595998 	2.45331e-05 	-2.97916e-06 	1.64452e-06 	5.47142e-07 	-2.17061e-07 	1.4321e-05
0.0614146 	2.16009e-05 	-2.98794e-06 	1.37245e-06 	5.96465e-07 	-2.24218e-07 	1.38185e-05
0.0632626 	1.89702e-05 	-2.92996e-06 	1.11274e-06 	6.5096e-07 	-2.25085e-07 	1.34063e-05
0.0651106 	1.63395e-05 	-2.87199e-06 	8.53034e-07 	7.05455e-07 	-2.25952e-07 	1.2994e-05
0.0669925 	1.42333e-05 	-2.76268e-06 	6.27262e-07 	7.62889e-07 	-2.20968e-07 	1.26675e-05
0.0688745 	1.21271e-05 	-2.65337e-06 	4.01489e-07 	8.20323e-07 	-2.15983e-07 	1.23409e-05
0.0707909 	1.05955e-05 	-2.50929e-06 	2.21349e-07 	8.77136e-07 	-2.06546e-07 	1.20926e-05
0.0727073 	9.06388e-06 	-2.3652e-06 	4.12097e-08 	9.33949e-07 	-1.9711e-07 	1.18443e-05
0.0746589 	8.04221e-06 	-2.20673e-06 	-9.00724e-08 	9.84988e-07 	-1.85194e-07 	1.16631e-05
0.0766105 	7.02054e-06 	-2.04825e-06 	-2.21354e-07 	1.03603e-06 	-1.73277e-07 	1.14819e-05
0.0785979 	6.41658e-06 	-1.90331e-06 	-3.08818e-07 	1.07663e-06 	-1.60956e-07 	1.1354e-05
0.0805853 	5.81262e-06 	-1.75836e-06 	-3.96281e-07 	1.11723e-06 	-1.48635e-07 	1.12262e-05
0.0826091 	5.49694e-06 	-1.6463e-06 	-4.51392e-07 	1.1457e-06 	-1.37401e-07 	1.11377e-05
0.0846329 	5.18127e-06 	-1.53424e-06 	-5.06504e-07 	1.17416e-06 	-1.26168e-07 	1.10492e-05
0.0866939 	5.03316e-06 	-1.45892e-06 	-5.41057e-07 	1.19198e-06 	-1.16622e-07 	1.09877e-05
0.0887548 	4.88505e-06 	-1.3836e-06 	-5.75611e-07 	1.20979e-06 	-1.07076e-07 	1.09263e-05
0.0908536 	4.82506e-06 	-1.33883e-06 	-5.98114e-07 	1.22014e-06 	-9.90917e-08 	1.08824e-05
0.0929523 	4.76507e-06 	-1.29407e-06 	-6.20618e-07 	1.2305e-06 	-9.1107e-08 	1.08386e-05
0.0950896 	4.75047e-06 	-1.27126e-06 	-6.36052e-07 	1.23647e-06 	-8.39909e-08 	1.08059e-05
0.0972268 	4.73588e-06 	-1.24846e-06 	-6.51485e-07 	1.24245e-06 	-7.68748e-08 	1.07732e-05
0.0994033 	4.74636e-06 	-1.23993e-06 	-6.61385e-07 	1.2463e-06 	-7.01986e-08 	1.07475e-05
0.10158 	4.75684e-06 	-1.2314e-06 	-6.71285e-07 	1.25016e-06 	-6.35224e-08 	1.07218e-05
0.103796 	4.78413e-06 	-1.22947e-06 	-6.73728e-07 	1.25317e-06 	-5.69657e-08 	1.0701e-05
0.106012 	4.81142e-06 	-1.22755e-06 	-6.76172e-07 	1.25618e-06 	-5.04089e-08 	1.06802e-05
0.108269 	4.86074e-06 	-1.22499e-06 	-6.69442e-07 	1.25975e-06 	-4.30865e-08 	1.06633e-05
0.110526 	4.91005e-06 	-1.22243e-06 	-6.62713e-07 	1.26332e-06 	-3.57641e-08 	1.06464e-05
0.112825 	4.96529e-06 	-1.2662e-06 	-6.56363e-07 	1.28225e-06 	-1.9645e-08 	1.06316e-05
0.115123 	5.02052e-06 	-1.30996e-06 	-6.50013e-07 	1.30118e-06 	-3.52581e-09 	1.06168e-05
0.117464 	4.89439e-06 	-1.289e-06 	-6.46324e-07 	1.28669e-06 	-5.15757e-09 	1.06028e-05
0.119804 	4.76825e-06 	-1.26804e-06 	-6.42636e-07 	1.27219e-06 	-6.78932e-09 	1.05888e-05
0.122188 	4.57262e-06 	-1.04917e-06 	-6.53325e-07 	1.22195e-06 	-5.98384e-08 	1.05709e-05
0.124571 	4.377e-06 	-8.30295e-07 	-6.64015e-07 	1.17172e-06 	-1.12887e-07 	1.0553e-05
0.126999 	4.40218e-06 	-5.65738e-07 	-6.95453e-07 	1.16206e-06 	-1.82406e-07 	1.05305e-05
0.129426 	4.42737e-06 	-3.0118e-07 	-7.2689e-07 	1.1524e-06 	-2.51925e-07 	1.0508e-05
0.131897 	4.69808e-06 	-1.32684e-07 	-7.69992e-07 	1.17882e-06 	-2.86854e-07 	1.04842e-05
0.134369 	4.9688e-06 	3.58118e-08 	-8.13093e-07 	1.20524e-06 	-3.21782e-07 	1.04604e-05
0.136886 	5.3224e-06 	-5.27417e-08 	-8.52288e-07 	1.1793e-06 	-2.94286e-07 	1.04367e-05
0.139403 	5.676e-06 	-1.41295e-07 	-8.91483e-07 	1.15337e-06 	-2.6679e-07 	1.0413e-05
0.141967 	5.67527e-06 	-3.85171e-07 	-9.05287e-07 	1.11228e-06 	-2.1217e-07 	1.0394e-05
0.14453 	5.67454e-06 	-6.29046e-07 	-9.19091e-07 	1.07119e-06 	-1.57551e-07 	1.0375e-05
0.14714 	5.52121e-06 	-7.19059e-07 	-9.24516e-07 	1.0667e-06 	-1.33667e-07 	1.03571e-05
0.14975 	5.36787e-06 	-8.09072e-07 	-9.29941e-07 	1.06222e-06 	-1.09783e-07 	1.03391e-05
0.152408 	5.37983e-06 	-8.13491e-07 	-9.40123e-07 	1.05491e-06 	-1.03233e-07 	1.03188e-05
0.155066 	5.39178e-06 	-8.17909e-07 	-9.50306e-07 	1.0476e-06 	-9.66832e-08 	1.02985e-05
0.157773 	5.42578e-06 	-8.50722e-07 	-9.59059e-07 	1.04585e-06 	-8.57804e-08 	1.02781e-05
0.16048 	5.45977e-06 	-8.83534e-07 	-9.67812e-07 	1.0441e-06 	-7.48777e-08 	1.02578e-05
0.163237 	5.49455e-06 	-9.21383e-07 	-9.73085e-07 	1.04489e-06 	-6.3005e-08 	1.02376e-05
0.165993 	5.52932e-06 	-9.59231e-07 	-9.78357e-07 	1.04569e-06 	-5.11322e-08 	1.02175e-05
0.1688 	5.55956e-06 	-1.00052e-06 	-9.791e-07 	1.04882e-06 	-3.89414e-08 	1.01976e-05
0.171607 	5.58979e-06 	-1.0418e-06 	-9.79843e-07 	1.05195e-06 	-2.67506e-08 	1.01777e-05
0.174466 	5.62282e-06 	-1.08802e-06 	-9.76836e-07 	1.05747e-06 	-1.43414e-08 	1.01582e-05
0.177324 	5.65584e-06 	-1.13423e-06 	-9.73828e-07 	1.06299e-06 	-1.9321e-09 	1.01386e-05
0.180235 	5.69487e-06 	-1.18553e-06 	-9.6786e-07 	1.07134e-06 	1.05467e-08 	1.01193e-05
0.183146 	5.7339e-06 	-1.23682e-06 	-9.61892e-07 	1.07969e-06 	2.30256e-08 	1.00999e-05
0.186111 	5.78196e-06 	-1.29435e-06 	-9.54666e-07 	1.09153e-06 	3.55608e-08 	1.0081e-05
0.189075 	5.83002e-06 	-1.35187e-06 	-9.4744e-07 	1.10337e-06 	4.80959e-08 	1.00621e-05
0.192094 	5.88762e-06 	-1.41736e-06 	-9.41443e-07 	1.11973e-06 	6.09758e-08 	1.0044e-05
0.195113 	5.94523e-06 	-1.48284e-06 	-9.35447e-07 	1.13609e-06 	7.38556e-08 	1.00259e-05
0.198187 	6.03011e-06 	-1.56362e-06 	-9.33903e-07 	1.15996e-06 	8.80324e-08 	1.00088e-05
0.201261 	6.115e-06 	-1.64441e-06 	-9.32358e-07 	1.18383e-06 	1.02209e-07 	9.99172e-06
0.204391 	6.20368e-06 	-1.74251e-06 	-9.34356e-07 	1.21871e-06 	1.18518e-07 	9.97586e-06
0.207522 	6.29237e-06 	-1.84062e-06 	-9.36354e-07 	1.2536e-06 	1.34827e-07 	9.96e-06
0.21071 	6.35973e-06 	-1.94724e-06 	-9.39482e-07 	1.29943e-06 	1.525e-07 	9.94518e-06
0.213898 	6.42709e-06 	-2.05385e-06 	-9.4261e-07 	1.34527e-06 	1.70172e-07 	9.93036e-06
0.217144 	6.49114e-06 	-2.16275e-06 	-9.45148e-07 	1.40073e-06 	1.875e-07 	9.91577e-06
0.22039 	6.55518e-06 	-2.27164e-06 	-9.47686e-07 	1.45619e-06 	2.04827e-07 	9.90118e-06
0.223696 	6.624e-06 	-2.38551e-06 	-9.42757e-07 	1.52436e-06 	2.19714e-07 	9.88567e-06
0.227002 	6.69282e-06 	-2.49937e-06 	-9.37828e-07 	1.59253e-06 	2.34601e-07 	9.87015e-06
0.230369 	6.74341e-06 	-2.63845e-06 	-9.3769e-07 	1.685e-06 	2.53513e-07 	9.85675e-06
0.233735 	6.794e-06 	-2.77753e-06 	-9.37553e-07 	1.77747e-06 	2.72425e-07 	9.84334e-06
0.237164 	6.81197e-06 	-2.82156e-06 	-9.47006e-07 	1.83773e-06 	2.90581e-07 	9.8344e-06
0.240592 	6.82994e-06 	-2.86559e-06 	-9.56459e-07 	1.898e-06 	3.08738e-07 	9.82545e-06
0.244083 	6.97966e-06 	-3.09585e-06 	-9.79396e-07 	2.11073e-06 	3.52983e-07 	9.81709e-06
0.247574 	7.12938e-06 	-3.3261e-06 	-1.00233e-06 	2.32346e-06 	3.97229e-07 	9.80873e-06
0.251129 	6.83429e-06 	-3.473e-06 	-9.88691e-07 	2.52184e-06 	4.31611e-07 	9.79803e-06
0.254685 	6.5392e-06 	-3.61989e-06 	-9.7505e-07 	2.72023e-06 	4.65994e-07 	9.78734e-06
0.258305 	6.31106e-06 	-3.13141e-06 	-9.54442e-07 	2.38191e-06 	3.93606e-07 	9.77281e-06
0.261925 	6.08293e-06 	-2.64293e-06 	-9.33834e-07 	2.04359e-06 	3.21218e-07 	9.75829e-06
0.265612 	6.44413e-06 	-2.18853e-06 	-9.70795e-07 	1.68664e-06 	2.4062e-07 	9.74611e-06
0.269299 	6.80532e-06 	-1.73414e-06 	-1.00776e-06 	1.3297e-06 	1.60023e-07 	9.73393e-06
0.273053 	6.87318e-06 	-1.73393e-06 	-1.02044e-06 	1.31007e-06 	1.60768e-07 	9.72502e-06
0.276808 	6.94103e-06 	-1.73373e-06 	-1.03312e-06 	1.29045e-06 	1.61512e-07 	9.71611e-06
0.280631 	6.89975e-06 	-1.76571e-06 	-9.97399e-07 	1.28191e-06 	1.80221e-07 	9.70568e-06
0.284454 	6.85848e-06 	-1.7977e-06 	-9.61674e-07 	1.27336e-06 	1.98929e-07 	9.69526e-06
0.288348 	6.97825e-06 	-1.75094e-06 	-9.28063e-07 	1.23698e-06 	2.05848e-07 	9.68388e-06
0.292241 	7.09801e-06 	-1.70418e-06 	-8.94451e-07 	1.20061e-06 	2.12767e-07 	9.67251e-06
0.296206 	7.14572e-06 	-1.71215e-06 	-8.75957e-07 	1.15406e-06 	2.12198e-07 	9.65922e-06
0.300171 	7.19343e-06 	-1.72013e-06 	-8.57463e-07 	1.10752e-06 	2.11629e-07 	9.64593e-06
0.304208 	7.19042e-06 	-1.73418e-06 	-8.46608e-07 	1.06353e-06 	2.0594e-07 	9.63184e-06
0.308246 	7.1874e-06 	-1.74823e-06 	-8.35753e-07 	1.01955e-06 	2.0025e-07 	9.61776e-06
0.312358 	7.17849e-06 	-1.75668e-06 	-8.25301e-07 	9.83439e-07 	1.92068e-07 	9.60354e-06
0.316469 	7.16959e-06 	-1.76512e-06 	-8.14849e-07 	9.47327e-07 	1.83886e-07 	9.58931e-06
0.320656 	7.13458e-06 	-1.77164e-06 	-8.0737e-07 	9.19615e-07 	1.74237e-07 	9.57436e-06
0.324843 	7.09957e-06 	-1.77815e-06 	-7.99891e-07 	8.91903e-07 	1.64588e-07 	9.55942e-06
0.329107 	7.04909e-06 	-1.78365e-06 	-7.93952e-07 	8.71341e-07 	1.5444e-07 	9.5437e-06
0.333371 	6.99862e-06 	-1.78914e-06 	-7.88013e-07 	8.50779e-07 	1.44291e-07 	9.52797e-06
0.337713 	6.96143e-06 	-1.79038e-06 	-7.80307e-07 	8.36241e-07 	1.34764e-07 	9.51177e-06
0.342055 	6.92424e-06 	-1.79163e-06 	-7.72601e-07 	8.21702e-07 	1.25237e-07 	9.49556e-06
0.346476 	6.89646e-06 	-1.78982e-06 	-7.63677e-07 	8.11842e-07 	1.16712e-07 	9.47921e-06
0.350898 	6.86868e-06 	-1.78801e-06 	-7.54752e-07 	8.01981e-07 	1.08186e-07 	9.46285e-06
0.355401 	6.84224e-06 	-1.7847e-06 	-7.46708e-07 	7.95578e-07 	1.00599e-07 	9.44649e-06
0.359903 	6.81579e-06 	-1.78139e-06 	-7.38664e-07 	7.89175e-07 	9.30125e-08 	9.43013e-06
0.364489 	6.78533e-06 	-1.7789e-06 	-7.32507e-07 	7.87227e-07 	8.65933e-08 	9.41398e-06
0.369074 	6.75488e-06 	-1.77641e-06 	-7.26351e-07 	7.8528e-07 	8.01741e-08 	9.39784e-06
0.373744 	6.71776e-06 	-1.76958e-06 	-7.22424e-07 	7.85093e-07 	7.39739e-08 	9.38197e-06
0.378413 	6.68064e-06 	-1.76276e-06 	-7.18498e-07 	7.84906e-07 	6.77736e-08 	9.3661e-06
0.383168 	6.64631e-06 	-1.74271e-06 	-7.21933e-07 	7.8069e-07 	6.19276e-08 	9.35113e-06
0.387923 	6.61198e-06 	-1.72267e-06 	-7.25368e-07 	7.76474e-07 	5.60816e-08 	9.33617e-06
0.392765 	6.60084e-06 	-1.70058e-06 	-7.40538e-07 	7.71864e-07 	5.28913e-08 	9.3226e-06
0.397608 	6.58969e-06 	-1.67849e-06 	-7.55708e-07 	7.67254e-07 	4.97011e-08 	9.30903e-06
0.402539 	6.6126e-06 	-1.66993e-06 	-7.83874e-07 	7.69332e-07 	5.17637e-08 	9.29678e-06
0.40747 	6.63551e-06 	-1.66138e-06 	-8.12041e-07 	7.71411e-07 	5.38263e-08 	9.28453e-06
0.412491 	6.7164e-06 	-1.66589e-06 	-8.54689e-07 	7.72228e-07 	6.19109e-08 	9.27425e-06
0.417513 	6.79729e-06 	-1.6704e-06 	-8.97338e-07 	7.73045e-07 	6.99956e-08 	9.26396e-06
0.422626 	6.97989e-06 	-1.68718e-06 	-9.5372e-07 	7.74946e-07 	7.94705e-08 	9.25644e-06
0.42774 	7.16248e-06 	-1.70395e-06 	-1.0101e-06 	7.76848e-07 	8.89454e-08 	9.24892e-06
0.432948 	7.49727e-06 	-1.66826e-06 	-1.10097e-06 	7.55024e-07 	9.80497e-08 	9.24945e-06
0.438155 	7.83206e-06 	-1.63256e-06 	-1.19184e-06 	7.332e-07 	1.07154e-07 	9.24998e-06
0.443458 	8.13422e-06 	-1.47766e-06 	-1.27459e-06 	6.68625e-07 	9.65495e-08 	9.25055e-06
0.448761 	8.43637e-06 	-1.32275e-06 	-1.35734e-06 	6.0405e-07 	8.59451e-08 	9.25113e-06
0.454161 	8.43107e-06 	-1.11239e-06 	-1.39619e-06 	5.50039e-07 	6.1106e-08 	9.24996e-06
0.459561 	8.42578e-06 	-9.02025e-07 	-1.43504e-06 	4.96029e-07 	3.6267e-08 	9.24878e-06
0.46506 	8.37414e-06 	-7.58298e-07 	-1.48047e-06 	4.80976e-07 	1.77664e-08 	9.256e-06
0.47056 	8.3225e-06 	-6.14572e-07 	-1.52589e-06 	4.65923e-07 	-7.34137e-10 	9.26322e-06
0.47616 	8.34294e-06 	-4.57894e-07 	-1.60119e-06 	4.69135e-07 	-3.60519e-08 	9.29067e-06
0.48176 	8.36339e-06 	-3.01215e-07 	-1.67649e-06 	4.72347e-07 	-7.13697e-08 	9.31811e-06
0.487463 	8.45101e-06 	-1.70957e-07 	-1.74799e-06 	5.15817e-07 	-1.11215e-07 	9.3233e-06
0.493165 	8.53864e-06 	-4.06987e-08 	-1.81949e-06 	5.59286e-07 	-1.5106e-07 	9.32849e-06
0.498973 	8.38455e-06 	1.28788e-08 	-1.75469e-06 	6.21841e-07 	-1.72107e-07 	9.26875e-06
0.50478 	8.23045e-06 	6.64563e-08 	-1.68989e-06 	6.84395e-07 	-1.93153e-07 	9.20901e-06
0.510694 	7.75435e-06 	1.68845e-07 	-1.56292e-06 	6.87277e-07 	-2.11171e-07 	9.14718e-06
0.516608 	7.27825e-06 	2.71233e-07 	-1.43595e-06 	6.90159e-07 	-2.2919e-07 	9.08535e-06
0.52263 	6.86767e-06 	3.06783e-07 	-1.36702e-06 	6.68245e-07 	-2.38208e-07 	9.05209e-06
0.528653 	6.45709e-06 	3.42332e-07 	-1.29808e-06 	6.46332e-07 	-2.47226e-07 	9.01883e-06
0.534786 	6.1784e-06 	2.91024e-07 	-1.25519e-06 	6.25463e-07 	-2.4022e-07 	8.99299e-06
0.540918 	5.89972e-06 	2.39715e-07 	-1.2123e-06 	6.04594e-07 	-2.33214e-07 	8.96715e-06
0.547164 	5.71691e-06 	1.95298e-07 	-1.18715e-06 	5.77715e-07 	-2.22009e-07 	8.94473e-06
0.553409 	5.5341e-06 	1.50881e-07 	-1.162e-06 	5.50835e-07 	-2.10805e-07 	8.9223e-06
0.559769 	5.39498e-06 	1.04725e-07 	-1.14757e-06 	5.32322e-07 	-1.98099e-07 	8.90134e-06
0.566129 	5.25585e-06 	5.8569e-08 	-1.13314e-06 	5.13809e-07 	-1.85392e-07 	8.88038e-06
0.572605 	5.14915e-06 	1.11882e-08 	-1.12488e-06 	5.01128e-07 	-1.72201e-07 	8.86016e-06
0.579082 	5.04244e-06 	-3.61927e-08 	-1.11662e-06 	4.88447e-07 	-1.59009e-07 	8.83994e-06
0.585677 	4.96306e-06 	-8.07796e-08 	-1.11237e-06 	4.78261e-07 	-1.45685e-07 	8.82063e-06
0.592272 	4.88368e-06 	-1.25366e-07 	-1.10813e-06 	4.68076e-07 	-1.32361e-07 	8.80131e-06
0.598989 	4.8256e-06 	-1.67804e-07 	-1.10667e-06 	4.59819e-07 	-1.18991e-07 	8.78248e-06
0.605705 	4.76752e-06 	-2.10241e-07 	-1.10522e-06 	4.51563e-07 	-1.05621e-07 	8.76364e-06
0.612544 	4.72253e-06 	-2.51963e-07 	-1.10645e-06 	4.4709e-07 	-9.25992e-08 	8.74455e-06
0.619384 	4.67753e-06 	-2.93685e-07 	-1.10768e-06 	4.42618e-07 	-7.95777e-08 	8.72545e-06
0.626349 	4.64482e-06 	-3.35393e-07 	-1.11108e-06 	4.429e-07 	-6.70578e-08 	8.70563e-06
0.633314 	4.61211e-06 	-3.77101e-07 	-1.11448e-06 	4.43182e-07 	-5.45378e-08 	8.6858e-06
0.640406 	4.59305e-06 	-4.19458e-07 	-1.11808e-06 	4.47366e-07 	-4.22867e-08 	8.66542e-06
0.647499 	4.57398e-06 	-4.61815e-07 	-1.12168e-06 	4.51549e-07 	-3.00356e-08 	8.64503e-06
0.654722 	4.57119e-06 	-5.04986e-07 	-1.12159e-06 	4.57461e-07 	-1.77199e-08 	8.62428e-06
0.661944 	4.5684e-06 	-5.48157e-07 	-1.12151e-06 	4.63373e-07 	-5.4043e-09 	8.60353e-06
0.669299 	4.58075e-06 	-5.89173e-07 	-1.11849e-06 	4.67781e-07 	7.84288e-09 	8.5822e-06
0.676655 	4.5931e-06 	-6.30188e-07 	-1.11548e-06 	4.72188e-07 	2.10901e-08 	8.56086e-06
0.684145 	4.60158e-06 	-6.64092e-07 	-1.11704e-06 	4.74848e-07 	3.5862e-08 	8.53883e-06
0.691635 	4.61006e-06 	-6.97995e-07 	-1.1186e-06 	4.77508e-07 	5.0634e-08 	8.51679e-06
0.699262 	4.60812e-06 	-7.28199e-07 	-1.12824e-06 	4.81582e-07 	6.64475e-08 	8.49365e-06
0.70689 	4.60618e-06 	-7.58403e-07 	-1.13788e-06 	4.85657e-07 	8.2261e-08 	8.47051e-06
0.714657 	4.60753e-06 	-7.93098e-07 	-1.15252e-06 	4.93647e-07 	9.88105e-08 	8.44503e-06
0.722424 	4.60888e-06 	-8.27793e-07 	-1.16715e-06 	5.01638e-07 	1.1536e-07 	8.41954e-06
0.730334 	4.61592e-06 	-8.67807e-07 	-1.18309e-06 	5.14648e-07 	1.3241e-07 	8.39175e-06
0.738244 	4.62296e-06 	-9.0782e-07 	-1.19902e-06 	5.27658e-07 	1.49459e-07 	8.36395e-06
0.746299 	4.63389e-06 	-9.48433e-07 	-1.21457e-06 	5.43924e-07 	1.65428e-07 	8.33496e-06
0.754354 	4.64482e-06 	-9.89046e-07 	-1.23012e-06 	5.60191e-07 	1.81397e-07 	8.30596e-06
0.762556 	4.66572e-06 	-1.02771e-06 	-1.2431e-06 	5.77002e-07 	1.94975e-07 	8.27681e-06
0.770759 	4.68662e-06 	-1.06638e-06 	-1.25607e-06 	5.93812e-07 	2.08553e-07 	8.24767e-06
0.779112 	4.72371e-06 	-1.10484e-06 	-1.26196e-06 	6.10846e-07 	2.21666e-07 	8.21812e-06
0.787465 	4.7608e-06 	-1.1433e-06 	-1.26784e-06 	6.27879e-07 	2.3478e-07 	8.18858e-06
0.795971 	4.81917e-06 	-1.18695e-06 	-1.2687e-06 	6.48564e-07 	2.52127e-07 	8.15827e-06
0.804478 	4.87754e-06 	-1.23059e-06 	-1.26957e-06 	6.69248e-07 	2.69475e-07 	8.12797e-06
0.81314 	4.94957e-06 	-1.28264e-06 	-1.27261e-06 	6.97423e-07 	2.91571e-07 	8.09532e-06
0.821802 	5.02161e-06 	-1.3347e-06 	-1.27565e-06 	7.25599e-07 	3.13666e-07 	8.06268e-06
0.830623 	5.08611e-06 	-1.39673e-06 	-1.28443e-06 	7.60803e-07 	3.37691e-07 	8.0276e-06
0.839445 	5.15061e-06 	-1.45876e-06 	-1.29321e-06 	7.96007e-07 	3.61717e-07 	7.99252e-06
0.848428 	5.20117e-06 	-1.5311e-06 	-1.30732e-06 	8.36747e-07 	3.8674e-07 	7.95654e-06
0.857411 	5.25173e-06 	-1.60345e-06 	-1.32143e-06 	8.77487e-07 	4.11763e-07 	7.92057e-06
0.866558 	5.29661e-06 	-1.68251e-06 	-1.3418e-06 	9.19781e-07 	4.35266e-07 	7.88299e-06
0.875706 	5.34149e-06 	-1.76157e-06 	-1.36218e-06 	9.62075e-07 	4.58769e-07 	7.84541e-06
0.885021 	5.40749e-06 	-1.84079e-06 	-1.38662e-06 	1.00148e-06 	4.78971e-07 	7.80596e-06
0.894337 	5.47349e-06 	-1.92001e-06 	-1.41106e-06 	1.04088e-06 	4.99174e-07 	7.7665e-06
0.903823 	5.58115e-06 	-1.99238e-06 	-1.43667e-06 	1.08184e-06 	5.16859e-07 	7.72606e-06
0.91331 	5.68881e-06 	-2.06476e-06 	-1.46227e-06 	1.1228e-06 	5.34545e-07 	7.68561e-06
0.92297 	5.83263e-06 	-2.1348e-06 	-1.49184e-06 	1.16823e-06 	5.47426e-07 	7.64535e-06
0.93263 	5.97644e-06 	-2.20485e-06 	-1.52141e-06 	1.21365e-06 	5.60307e-07 	7.60509e-06
0.942468 	6.19108e-06 	-2.24635e-06 	-1.56454e-06 	1.23208e-06 	5.61252e-07 	7.56817e-06
0.952305 	6.40571e-06 	-2.28785e-06 	-1.60767e-06 	1.25051e-06 	5.62197e-07 	7.53125e-06
0.962323 	6.61733e-06 	-2.31326e-06 	-1.64742e-06 	1.27112e-06 	5.45898e-07 	7.4857e-06
0.972341 	6.82896e-06 	-2.33867e-06 	-1.68717e-06 	1.29174e-06 	5.29598e-07 	7.44014e-06
0.982543 	7.33009e-06 	-2.36626e-06 	-1.77361e-06 	1.31435e-06 	5.02812e-07 	7.39505e-06
0.992745 	7.83122e-06 	-2.39386e-06 	-1.86004e-06 	1.33697e-06 	4.76026e-07 	7.34996e-06
1.00313 	8.22566e-06 	-2.26294e-06 	-1.92346e-06 	1.27245e-06 	4.20063e-07 	7.305e-06
1.01352 	8.62011e-06 	-2.13202e-06 	-1.98688e-06 	1.20793e-06 	3.641e-07 	7.26003e-06
1.0241 	8.53447e-06 	-2.1445e-06 	-1.97757e-06 	1.26107e-06 	3.52524e-07 	7.2135e-06
1.03468 	8.44883e-06 	-2.15698e-06 	-1.96826e-06 	1.3142e-06 	3.40948e-07 	7.16697e-06
1.04545 	8.09294e-06 	-2.11205e-06 	-1.92582e-06 	1.37885e-06 	3.40877e-07 	7.13322e-06
1.05623 	7.73706e-06 	-2.06712e-06 	-1.88337e-06 	1.4435e-06 	3.40806e-07 	7.09946e-06
1.07817 	6.66773e-06 	-1.30555e-06 	-1.72284e-06 	1.26654e-06 	1.04116e-07 	7.03697e-06
1.10051 	5.73475e-06 	-8.50076e-07 	-1.55988e-06 	1.41404e-06 	-2.02401e-07 	6.97244e-06
1.11189 	4.9479e-06 	-7.0163e-07 	-1.40749e-06 	1.57763e-06 	-3.26205e-07 	6.9413e-06
1.12327 	4.16104e-06 	-5.53183e-07 	-1.25509e-06 	1.74122e-06 	-4.50009e-07 	6.91015e-06
1.13485 	3.72426e-06 	-4.00836e-07 	-1.15739e-06 	1.83323e-06 	-5.64639e-07 	6.87676e-06
1.14644 	3.28748e-06 	-2.48489e-07 	-1.05968e-06 	1.92524e-06 	-6.79269e-07 	6.84337e-06
1.15824 	3.39193e-06 	5.07786e-08 	-1.10362e-06 	2.24662e-06 	-8.63734e-07 	6.82162e-06
1.17004 	3.49639e-06 	3.50047e-07 	-1.14756e-06 	2.568e-06 	-1.0482e-06 	6.79988e-06
1.18205 	3.97916e-06 	6.56642e-07 	-1.33775e-06 	2.79258e-06 	-1.16001e-06 	6.79453e-06
1.19407 	4.46194e-06 	9.63237e-07 	-1.52794e-06 	3.01715e-06 	-1.27182e-06 	6.78917e-06
1.2063 	4.73117e-06 	6.54792e-07 	-1.73472e-06 	2.66393e-06 	-1.10983e-06 	6.86428e-06
1.21854 	5.0004e-06 	3.46346e-07 	-1.9415e-06 	2.31071e-06 	-9.47843e-07 	6.93938e-06
1.24345 	4.75283e-06 	-6.30414e-07 	-1.84334e-06 	1.70566e-06 	-4.53246e-07 	6.76181e-06
1.26883 	4.49156e-06 	-9.54777e-07 	-1.62837e-06 	1.62483e-06 	-2.51251e-07 	6.46715e-06
1.29467 	4.55105e-06 	-1.04943e-06 	-1.62218e-06 	1.66467e-06 	-2.11628e-07 	6.32177e-06
1.30783 	4.62704e-06 	-1.10911e-06 	-1.63629e-06 	1.69951e-06 	-1.89092e-07 	6.25332e-06
1.32099 	4.70304e-06 	-1.1688e-06 	-1.6504e-06 	1.73435e-06 	-1.66557e-07 	6.18487e-06
1.33439 	4.79644e-06 	-1.23375e-06 	-1.67142e-06 	1.77327e-06 	-1.42186e-07 	6.1181e-06
1.34778 	4.88985e-06 	-1.2987e-06 	-1.69245e-06 	1.81219e-06 	-1.17815e-07 	6.05133e-06
1.36143 	5.0512e-06 	-1.38136e-06 	-1.74057e-06 	1.85809e-06 	-8.68076e-08 	5.99498e-06
1.37507 	5.21256e-06 	-1.46402e-06 	-1.7887e-06 	1.90398e-06 	-5.58001e-08 	5.93862e-06
1.40286 	5.57336e-06 	-1.70712e-06 	-1.94638e-06 	2.02438e-06 	4.27326e-08 	5.87477e-06
1.43116 	5.81217e-06 	-1.96464e-06 	-2.06639e-06 	2.16203e-06 	1.50843e-07 	5.80772e-06
1.45998 	5.81125e-06 	-2.30061e-06 	-2.09964e-06 	2.36288e-06 	2.92252e-07 	5.75273e-06
1.48933 	5.99409e-06 	-2.79676e-06 	-2.47098e-06 	2.69569e-06 	5.90256e-07 	6.04887e-06
1.51921 	5.73411e-06 	-3.0548e-06 	-3.061e-06 	2.96083e-06 	1.00605e-06 	6.98994e-06
1.53443 	5.63992e-06 	-3.243e-06 	-3.373e-06 	3.1693e-06 	1.34738e-06 	7.59828e-06
1.54965 	5.54573e-06 	-3.4312e-06 	-3.685e-06 	3.37778e-06 	1.6887e-06 	8.20663e-06
1.56514 	5.17691e-06 	-3.63839e-06 	-3.83356e-06 	3.92293e-06 	2.45821e-06 	9.31806e-06
1.58064 	4.8081e-06 	-3.84559e-06 	-3.98212e-06 	4.46808e-06 	3.22772e-06 	1.04295e-05
1.59642 	4.12367e-06 	-3.60417e-06 	-3.69777e-06 	4.64817e-06 	3.61337e-06 	1.14262e-05
1.6122 	3.43924e-06 	-3.36274e-06 	-3.41343e-06 	4.82827e-06 	3.99902e-06 	1.24229e-05
1.62827 	3.02678e-06 	-3.20441e-06 	-3.15465e-06 	4.82611e-06 	3.94836e-06 	1.23136e-05
1.64434 	2.61431e-06 	-3.04609e-06 	-2.89586e-06 	4.82394e-06 	3.89769e-06 	1.22042e-05
1.6607 	2.24905e-06 	-2.80007e-06 	-2.31877e-06 	4.98553e-06 	3.75849e-06 	1.12087e-05
1.67707 	1.88379e-06 	-2.55405e-06 	-1.74169e-06 	5.14712e-06 	3.61928e-06 	1.02132e-05
1.69373 	1.64664e-06 	-2.33026e-06 	-1.33168e-06 	4.94088e-06 	3.1053e-06 	9.02579e-06
1.7104 	1.40948e-06 	-2.10647e-06 	-9.21681e-07 	4.73463e-06 	2.59132e-06 	7.83835e-06
1.72737 	1.36778e-06 	-2.05712e-06 	-8.49383e-07 	4.56835e-06 	2.25005e-06 	7.189e-06
1.74434 	1.32609e-06 	-2.00777e-06 	-7.77084e-07 	4.40206e-06 	1.90878e-06 	6.53965e-06
1.76162 	1.26197e-06 	-1.90077e-06 	-6.10137e-07 	4.43099e-06 	1.78363e-06 	6.1066e-06
1.7789 	1.19785e-06 	-1.79376e-06 	-4.43189e-07 	4.45993e-06 	1.65848e-06 	5.67355e-06
1.7965 	1.16215e-06 	-1.68921e-06 	-3.03453e-07 	4.41378e-06 	1.47873e-06 	5.2459e-06
1.81409 	1.12645e-06 	-1.58466e-06 	-1.63717e-07 	4.36762e-06 	1.29898e-06 	4.81826e-06
1.83202 	1.12992e-06 	-1.51514e-06 	-1.10222e-07 	4.25909e-06 	1.10125e-06 	4.48153e-06
1.84994 	1.13339e-06 	-1.44562e-06 	-5.67275e-08 	4.15056e-06 	9.03516e-07 	4.1448e-06
1.86819 	1.17317e-06 	-1.38913e-06 	-4.85182e-08 	4.01142e-06 	7.12693e-07 	3.87314e-06
1.88644 	1.21296e-06 	-1.33265e-06 	-4.03089e-08 	3.87228e-06 	5.2187e-07 	3.60148e-06
1.90502 	1.25747e-06 	-1.29139e-06 	-8.16124e-08 	3.76803e-06 	3.81716e-07 	3.42743e-06
1.9236 	1.30197e-06 	-1.25014e-06 	-1.22916e-07 	3.66377e-06 	2.41562e-07 	3.25338e-06
1.94253 	1.5874e-06 	-1.2574e-06 	-1.60029e-07 	3.6844e-06 	1.39681e-07 	3.16337e-06
1.96146 	1.87284e-06 	-1.26467e-06 	-1.97142e-07 	3.70502e-06 	3.77997e-08 	3.07335e-06
1.98073 	1.68534e-06 	-1.48657e-06 	-1.88196e-07 	4.05982e-06 	2.4681e-07 	3.03513e-06
2 	1.49785e-06 	-1.70847e-06 	-1.79251e-07 	4.41462e-06 	4.55819e-07 	2.99691e-06
