0 1e-10
0.00128482 0.00484755
0.00256965 0.0096951
0.00387803 0.00773103
0.00518642 0.00576696
0.00651881 0.00443736
0.00785119 0.00310776
0.00920802 0.00251225
0.0105648 0.00191675
0.0119465 0.00178561
0.0133283 0.00165447
0.0147353 0.0017346
0.0161424 0.00181473
0.0175752 0.00196223
0.0190081 0.00210973
0.0204672 0.00225251
0.0219263 0.0023953
0.0234122 0.00253035
0.0248981 0.0026654
0.0264113 0.00280191
0.0279244 0.00293842
0.0294653 0.00308301
0.0310063 0.00322759
0.0325754 0.00336762
0.0341446 0.00350766
0.0357425 0.00360585
0.0373405 0.00370404
0.0389677 0.00372169
0.040595 0.00373934
0.0422521 0.00365414
0.0439092 0.00356893
0.0455967 0.00340804
0.0472842 0.00324714
0.0490026 0.00306824
0.0507211 0.00288933
0.052471 0.00273325
0.054221 0.00257716
0.056003 0.00246053
0.0577851 0.0023439
0.0595998 0.00225235
0.0614146 0.00216079
0.0632626 0.00205442
0.0651106 0.00194805
0.0669925 0.0018059
0.0688745 0.00166376
0.0707909 0.00151451
0.0727073 0.00136526
0.0746589 0.00124568
0.0766105 0.0011261
0.0785979 0.00104861
0.0805853 0.000971127
0.0826091 0.000928654
0.0846329 0.000886182
0.0866939 0.000865972
0.0887548 0.000845761
0.0908536 0.000837346
0.0929523 0.00082893
0.0950896 0.000826395
0.0972268 0.000823861
0.0994033 0.00082633
0.10158 0.0008288
0.103796 0.000839476
0.106012 0.000850152
0.108269 0.000867164
0.110526 0.000884176
0.112825 0.000896066
0.115123 0.000907957
0.117464 0.000904546
0.119804 0.000901135
0.122188 0.0008774
0.124571 0.000853665
0.126999 0.000811121
0.129426 0.000768577
0.131897 0.000716959
0.134369 0.000665342
0.136886 0.000618358
0.139403 0.000571374
0.141967 0.000537164
0.14453 0.000502955
0.14975 0.000459155
0.155066 0.00043463
0.16048 0.000423991
0.165993 0.000422951
0.171607 0.00042885
0.177324 0.000441001
0.183146 0.000459061
0.189075 0.00048348
0.195113 0.000518587
0.201261 0.000579918
0.207522 0.000700563
0.213898 0.000943638
0.22039 0.00131093
0.220635 0.00132406
0.223819 0.00149482
0.227002 0.00166557
0.230244 0.00182333
0.233486 0.00198109
0.233611 0.00198716
0.233735 0.00199323
0.240592 0.00256954
0.247574 0.00310832
0.254685 0.00289933
0.261925 0.00211617
0.269299 0.00156633
0.276808 0.00142814
0.284454 0.00143333
0.292241 0.00150884
0.300171 0.00156582
0.308246 0.0015535
0.316469 0.00147698
0.324843 0.00140302
0.333371 0.00139566
0.342055 0.00148229
0.350898 0.00165619
0.359903 0.00177578
0.364489 0.00175067
0.369074 0.00172556
0.378413 0.00147009
0.387923 0.00113762
0.397608 0.000940775
0.40747 0.000879111
0.417513 0.00086964
0.42774 0.000893029
0.438155 0.000947648
0.448761 0.00103518
0.459561 0.00119553
0.47056 0.00160271
0.48176 0.00246467
0.493165 0.00333375
0.50478 0.00348658
0.516608 0.00289817
0.528653 0.00221921
0.540918 0.00196231
0.553409 0.00210349
0.566129 0.00242769
0.579082 0.00275074
0.592272 0.00302522
0.605705 0.00325058
0.619384 0.00343895
0.633314 0.0035055
0.647499 0.00334761
0.661944 0.00300728
0.676655 0.00269963
0.691635 0.00258332
0.70689 0.00269131
0.722424 0.00319159
0.738244 0.00387176
0.754354 0.00419818
0.770759 0.00389224
0.787465 0.00335776
0.804478 0.00310842
0.821802 0.00310914
0.830623 0.0031793
0.839445 0.00324946
0.857411 0.00334847
0.875706 0.00331706
0.894337 0.00314228
0.91331 0.00276422
0.93263 0.0022526
0.952305 0.00186431
0.972341 0.00171751
0.992745 0.00170604
1.01352 0.00178531
1.03468 0.0019789
1.05623 0.00227417
1.07817 0.00257539
1.08934 0.00266664
1.10051 0.00275789
1.12327 0.00279849
1.14644 0.00277455
1.17004 0.00279059
1.19407 0.00296224
1.21854 0.00330238
1.24345 0.00367276
1.25614 0.00380242
1.26883 0.00393208
1.29467 0.00401839
1.32099 0.00381694
1.33439 0.00366136
1.34778 0.00350579
1.36143 0.00340701
1.37507 0.00330824
1.40286 0.00305158
1.43116 0.00244667
1.45998 0.0022653
1.48933 0.00269195
1.51921 0.00275154
1.54965 0.0024134
1.58064 0.00242212
1.6122 0.00237998
1.64434 0.00193318
1.67707 0.00153211
1.69373 0.00122843
1.7104 0.000924753
1.72737 0.000645331
1.74434 0.00036591
1.7789 0.000149699
1.81409 0.000117197
1.83202 0.000114798
1.84994 0.000112398
1.88644 0.00011333
1.9236 0.000116609
1.96146 0.000121363
2 0.00012575
