0 -0.000755415
0.00128482 -0.000377707
0.00256965 1.69628e-16
0.00387803 6.23864e-17
0.00518642 1.7186e-16
0.00651881 6.22975e-17
0.00785119 1.73983e-16
0.00920802 6.38937e-17
0.0105648 1.7736e-16
0.0119465 6.65071e-17
0.0133283 1.81767e-16
0.0147353 6.97346e-17
0.0161424 1.87124e-16
0.0175752 7.36391e-17
0.0190081 1.9336e-16
0.0204672 7.83163e-17
0.0219263 2.00389e-16
0.0234122 8.37795e-17
0.0248981 2.08097e-16
0.0264113 9.00479e-17
0.0279244 2.16416e-16
0.0294653 9.71749e-17
0.0310063 2.25333e-16
0.0325754 1.0547e-16
0.0341446 2.34845e-16
0.0357425 1.15122e-16
0.0373405 2.4495e-16
0.0389677 1.26041e-16
0.040595 2.55604e-16
0.0422521 1.38074e-16
0.0439092 2.66664e-16
0.0455967 1.5106e-16
0.0472842 2.77873e-16
0.0490026 1.64873e-16
0.0507211 2.88916e-16
0.052471 1.79346e-16
0.054221 2.99436e-16
0.056003 1.94175e-16
0.0577851 3.09042e-16
0.0595998 2.08979e-16
0.0614146 3.17376e-16
0.0632626 2.23789e-16
0.0651106 3.24092e-16
0.0669925 2.37989e-16
0.0688745 3.28893e-16
0.0707909 2.51249e-16
0.0727073 3.31604e-16
0.0746589 2.63045e-16
0.0766105 3.32083e-16
0.0785979 2.72555e-16
0.0805853 3.3016e-16
0.0826091 2.78677e-16
0.0846329 3.25704e-16
0.0866939 2.81097e-16
0.0887548 3.18576e-16
0.0908536 2.78816e-16
0.0929523 3.08601e-16
0.0950896 2.71814e-16
0.0972268 2.95775e-16
0.0994033 2.62036e-16
0.10158 2.80346e-16
0.103796 2.50454e-16
0.106012 2.62713e-16
0.108269 2.37783e-16
0.110526 2.43358e-16
0.112825 2.24262e-16
0.115123 2.22876e-16
0.117464 2.10302e-16
0.119804 2.01878e-16
0.122188 1.97161e-16
0.124571 1.80996e-16
0.126999 1.85659e-16
0.129426 1.60938e-16
0.131897 1.757e-16
0.134369 1.42163e-16
0.136886 1.66731e-16
0.139403 1.24719e-16
0.141967 1.58151e-16
0.14453 1.08549e-16
0.14714 1.49536e-16
0.14975 9.39341e-17
0.152408 1.40416e-16
0.155066 8.15853e-17
0.157773 1.31168e-16
0.16048 7.1905e-17
0.163237 1.22805e-16
0.165993 6.45013e-17
0.1688 1.15106e-16
0.171607 5.88104e-17
0.174466 1.07771e-16
0.177324 5.44375e-17
0.180235 1.00511e-16
0.183146 5.10504e-17
0.186111 9.30927e-17
0.189075 4.83655e-17
0.192094 8.53124e-17
0.195113 4.60825e-17
0.198187 7.69699e-17
0.201261 4.39417e-17
0.204391 6.82739e-17
0.207522 4.17607e-17
0.21071 5.78214e-17
0.213898 3.93266e-17
0.217144 4.60509e-17
0.22039 3.64149e-17
0.220637 6.56392e-17
0.220884 6.64811e-17
0.223943 2.00624e-16
0.227002 5.72058e-17
0.230117 8.13416e-17
0.233232 0
0.233484 1.79045e-17
0.233735 2.86923e-17
0.237164 1.04044e-18
0.240592 2.36998e-17
0.244083 -1.8084e-17
0.247574 1.78733e-17
0.251129 -3.9758e-17
0.254685 1.12627e-17
0.258305 -6.42218e-17
0.261925 4.0075e-18
0.265612 -9.11065e-17
0.269299 -3.75716e-18
0.273053 -1.18584e-16
0.276808 -1.18858e-17
0.280631 -1.4361e-16
0.284454 -2.02387e-17
0.288348 -1.65329e-16
0.292241 -2.87112e-17
0.296206 -1.84131e-16
0.300171 -3.70484e-17
0.304208 -1.98937e-16
0.308246 -4.49332e-17
0.312358 -2.09738e-16
0.316469 -5.20932e-17
0.320656 -2.16719e-16
0.324843 -5.84313e-17
0.329107 -2.22048e-16
0.333371 -6.42395e-17
0.337713 -2.27632e-16
0.342055 -7.00234e-17
0.346476 -2.34338e-16
0.350898 -7.62784e-17
0.355401 -2.43098e-16
0.359903 -8.33172e-17
0.364489 -2.53744e-16
0.369074 -9.11727e-17
0.373744 -2.65797e-16
0.378413 -9.94672e-17
0.383168 -2.78653e-16
0.387923 -1.07532e-16
0.392765 -2.92325e-16
0.397608 -1.14827e-16
0.402539 -3.03133e-16
0.40747 -1.21012e-16
0.412491 -3.11277e-16
0.417513 -1.25928e-16
0.422626 -3.20976e-16
0.42774 -1.29605e-16
0.432948 -3.2993e-16
0.438155 -1.32162e-16
0.443458 -3.37124e-16
0.448761 -1.33861e-16
0.454161 -3.41223e-16
0.459561 -1.34782e-16
0.46506 -3.4298e-16
0.47056 -1.34834e-16
0.47616 -3.46709e-16
0.48176 -1.34145e-16
0.487463 -3.56854e-16
0.493165 -1.32853e-16
0.498973 -3.74274e-16
0.50478 -1.31086e-16
0.510694 -3.92364e-16
0.516608 -1.29102e-16
0.52263 -4.04769e-16
0.528653 -1.27087e-16
0.534786 -4.10764e-16
0.540918 -1.25018e-16
0.547164 -4.10095e-16
0.553409 -1.22737e-16
0.559769 -4.02592e-16
0.566129 -1.20144e-16
0.572605 -3.87366e-16
0.579082 -1.17016e-16
0.585677 -3.63699e-16
0.592272 -1.11833e-16
0.598989 -3.33964e-16
0.605705 -1.00796e-16
0.612544 -2.87325e-16
0.619384 -8.19831e-17
0.626349 -2.27213e-16
0.633314 -5.6649e-17
0.640406 -1.57182e-16
0.647499 -2.76892e-17
0.654722 -9.49399e-17
0.661944 1.49068e-18
0.669299 -4.25799e-17
0.676655 2.92794e-17
0.684145 -2.06407e-19
0.691635 5.52485e-17
0.699262 3.40534e-17
0.70689 7.94192e-17
0.714657 6.09268e-17
0.722424 1.02125e-16
0.730334 8.28034e-17
0.738244 1.23972e-16
0.746299 1.01764e-16
0.754354 1.45492e-16
0.762556 1.19418e-16
0.770759 1.66998e-16
0.779112 1.36708e-16
0.787465 1.88551e-16
0.795971 1.53417e-16
0.804478 2.09976e-16
0.81314 1.69008e-16
0.821802 2.30802e-16
0.830623 1.87167e-16
0.839445 2.50385e-16
0.848428 2.02388e-16
0.857411 2.68128e-16
0.866558 2.13955e-16
0.875706 2.83533e-16
0.885021 2.2221e-16
0.894337 2.9627e-16
0.903823 2.2781e-16
0.91331 3.06307e-16
0.92297 2.32092e-16
0.93263 3.13728e-16
0.942468 2.42673e-16
0.952305 3.18456e-16
0.962323 2.6232e-16
0.972341 3.20396e-16
0.982543 2.82751e-16
0.992745 3.20074e-16
1.00313 3.00147e-16
1.01352 3.1789e-16
1.0241 3.12429e-16
1.03468 3.13571e-16
1.04545 3.18291e-16
1.05623 3.06927e-16
1.0672 3.27038e-16
1.07817 2.97988e-16
1.08934 3.42885e-16
1.10051 2.87044e-16
1.11189 3.57672e-16
1.12327 2.74764e-16
1.13485 3.68583e-16
1.14644 2.61796e-16
1.15824 3.73216e-16
1.17004 2.48938e-16
1.18205 3.73811e-16
1.19407 2.37081e-16
1.2063 3.70537e-16
1.21854 2.26175e-16
1.23099 3.65557e-16
1.24345 2.16351e-16
1.25614 3.61034e-16
1.26883 2.07972e-16
1.28175 3.59756e-16
1.29467 2.00913e-16
1.30783 3.64088e-16
1.32099 1.95539e-16
1.33439 3.76752e-16
1.34778 1.90891e-16
1.36143 3.93956e-16
1.37507 1.84436e-16
1.38897 4.06269e-16
1.40286 1.72953e-16
1.41701 4.02337e-16
1.43116 1.53481e-16
1.44557 3.74965e-16
1.45998 1.28584e-16
1.47466 3.33975e-16
1.48933 1.03879e-16
1.50427 2.88633e-16
1.51921 8.16277e-17
1.53443 2.41148e-16
1.54965 6.2151e-17
1.56514 1.94793e-16
1.58064 4.56723e-17
1.59642 1.52311e-16
1.6122 3.22173e-17
1.62827 1.15853e-16
1.64434 2.15295e-17
1.6607 8.51835e-17
1.67707 1.31416e-17
1.69373 5.99227e-17
1.7104 6.65745e-18
1.72737 6.72712e-18
1.74434 1.73329e-18
1.76162 1.6459e-18
1.7789 -1.93506e-18
1.7965 -2.13754e-18
1.81409 -4.61245e-18
1.83202 2.94731e-18
1.84994 -6.52007e-18
1.86819 -6.86217e-18
1.88644 -7.8091e-18
1.90502 -8.18878e-18
1.9236 -8.62441e-18
1.94253 -9.02607e-18
1.96146 -9.12583e-18
1.98073 -9.53933e-18
2 -9.41475e-18
