0 1e-10
0.00128482 0.012555
0.00256965 0.02511
0.00387803 0.0199983
0.00518642 0.0148866
0.00651881 0.0111071
0.00785119 0.00732758
0.00920802 0.00518372
0.0105648 0.00303985
0.0119465 0.00220057
0.0133283 0.00136128
0.0147353 0.00110926
0.0161424 0.000857243
0.0175752 0.000789044
0.0190081 0.000720845
0.0204672 0.000701871
0.0219263 0.000682897
0.0234122 0.000678084
0.0248981 0.000673272
0.0264113 0.00067568
0.0279244 0.000678089
0.0294653 0.000684453
0.0310063 0.000690817
0.0325754 0.00069939
0.0341446 0.000707962
0.0357425 0.000723343
0.0373405 0.000738723
0.0389677 0.000762866
0.040595 0.000787009
0.0422521 0.000811998
0.0439092 0.000836987
0.0455967 0.000857198
0.0472842 0.00087741
0.0490026 0.000893749
0.0507211 0.000910088
0.052471 0.000922483
0.054221 0.000934878
0.056003 0.000943704
0.0577851 0.00095253
0.0595998 0.000958607
0.0614146 0.000964683
0.0632626 0.000969006
0.0651106 0.000973329
0.0669925 0.000977661
0.0688745 0.000981993
0.0707909 0.00098608
0.0727073 0.000990167
0.0746589 0.000992526
0.0766105 0.000994884
0.0785979 0.000995245
0.0805853 0.000995606
0.0826091 0.000994958
0.0846329 0.00099431
0.0866939 0.000993713
0.0887548 0.000993117
0.0908536 0.00099387
0.0929523 0.000994622
0.0950896 0.000997259
0.0972268 0.000999896
0.0994033 0.00100495
0.10158 0.00101
0.103796 0.00101939
0.106012 0.00102878
0.108269 0.00104524
0.110526 0.00106169
0.112825 0.00108327
0.115123 0.00110484
0.117464 0.00112543
0.119804 0.00114602
0.1221 0.00116246
0.124395 0.00117891
0.124483 0.00117954
0.124571 0.00118017
0.126999 0.00119467
0.129426 0.00120917
0.131897 0.00122186
0.134369 0.00123454
0.136886 0.00124516
0.139403 0.00125577
0.139498 0.0012561
0.139593 0.00125642
0.142061 0.00126492
0.14453 0.00127342
0.14975 0.00128745
0.155066 0.00129125
0.16048 0.00127628
0.165993 0.00124191
0.1688 0.0012232
0.171607 0.0012045
0.174466 0.00119489
0.177324 0.00118528
0.180235 0.00118609
0.183146 0.0011869
0.186111 0.00119241
0.189075 0.00119792
0.195113 0.00119814
0.201261 0.00117977
0.207522 0.00117016
0.213898 0.00118992
0.22039 0.00124061
0.227002 0.00132604
0.233735 0.00143263
0.240592 0.00151592
0.247574 0.00154275
0.254685 0.00152134
0.261925 0.00145538
0.269299 0.00135068
0.276808 0.00123431
0.284454 0.00112667
0.292241 0.00103782
0.300171 0.00098125
0.308246 0.000956077
0.316469 0.0009553
0.324843 0.000982319
0.333371 0.00103395
0.342055 0.00112894
0.350898 0.00132672
0.359903 0.00169868
0.369074 0.00213186
0.378413 0.00246741
0.387923 0.00311645
0.397608 0.0051042
0.40747 0.00782772
0.417513 0.00770252
0.42774 0.00517298
0.438155 0.00385559
0.448761 0.00372007
0.459561 0.00374532
0.47056 0.00376297
0.48176 0.00389149
0.493165 0.00418003
0.50478 0.00446614
0.516608 0.00447664
0.528653 0.0041936
0.540918 0.00381202
0.553409 0.00342906
0.566129 0.00311156
0.579082 0.00292215
0.592272 0.00302416
0.605705 0.0037441
0.619384 0.00559468
0.633314 0.008037
0.647499 0.00820245
0.661944 0.00577467
0.676655 0.00392215
0.691635 0.00340672
0.70689 0.0032599
0.722424 0.00327534
0.738244 0.00343255
0.754354 0.00369225
0.770759 0.00404633
0.787465 0.00443894
0.804478 0.00482997
0.821802 0.00515833
0.839445 0.00536519
0.857411 0.00537253
0.875706 0.00516456
0.894337 0.00480857
0.91331 0.00435485
0.93263 0.00391747
0.952305 0.00364046
0.972341 0.00356625
0.992745 0.00358141
1.01352 0.00359722
1.03468 0.00362656
1.05623 0.00357641
1.07817 0.0033258
1.10051 0.00296748
1.12327 0.00278186
1.14644 0.00288333
1.17004 0.00334771
1.19407 0.00395469
1.21854 0.0043088
1.24345 0.00485452
1.26883 0.00538761
1.29467 0.00471799
1.32099 0.00399708
1.34778 0.00403316
1.37507 0.0036626
1.40286 0.00300146
1.43116 0.0025863
1.45998 0.00228524
1.48933 0.00185413
1.51921 0.0014633
1.54965 0.00143411
1.58064 0.00195971
1.6122 0.00379454
1.64434 0.00437997
1.67707 0.00248853
1.7104 0.0011077
1.74434 0.000512358
1.7789 0.000180027
1.81409 0.000102317
1.84994 9.71998e-05
1.88644 9.84039e-05
1.9236 0.00010277
1.96146 0.000106541
2 0.000108287
