1 1e-10
1.00148 0.012355
1.00296 0.0262198
1.00447 0.0194611
1.00598 0.00938438
1.00753 0.0063788
1.00907 0.00264969
1.00964 0.00224853
1.0102 0.00185341
1.01121 0.00143522
1.01222 0.000914563
1.01383 0.000786586
1.01544 0.000536158
1.01709 0.000469499
1.01873 0.000384944
1.01978 0.000369227
1.02083 0.000352574
1.02146 0.00034644
1.02209 0.000337388
1.02381 0.000330782
1.02552 0.000320963
1.02727 0.000319688
1.02902 0.000316391
1.03047 0.000318295
1.03191 0.00031835
1.03226 0.000319219
1.0326 0.000319721
1.03443 0.000327942
1.03625 0.000332348
1.03812 0.000342365
1.03998 0.00034292
1.04173 0.000343962
1.04348 0.000340244
1.04363 0.000340425
1.04379 0.000340341
1.04574 0.000336922
1.04768 0.000331686
1.04967 0.000320269
1.05165 0.000310628
1.0536 0.00029245
1.05556 0.000276548
1.05563 0.000275905
1.05571 0.000275307
1.05778 0.000258457
1.05985 0.000242214
1.06197 0.000239084
1.06409 0.000234357
1.06613 0.000242382
1.06818 0.000249898
1.06829 0.000250376
1.06841 0.000250817
1.07061 0.000267334
1.07282 0.000284252
1.07507 0.00030267
1.07733 0.000324222
1.07936 0.000346824
1.0814 0.000371662
1.08166 0.00037523
1.08193 0.000379685
1.08428 0.000444064
1.08663 0.000518538
1.08903 0.000629326
1.09143 0.000728236
1.09333 0.000782757
1.09524 0.000824711
1.09578 0.000837954
1.09633 0.000845469
1.09883 0.000823086
1.10133 0.000783978
1.10389 0.00070051
1.10644 0.000614152
1.1081 0.00054999
1.10976 0.00049064
1.11071 0.000450418
1.11166 0.000416314
1.11433 0.000338581
1.11699 0.000283149
1.11972 0.000248748
1.12244 0.000226347
1.12372 0.000220233
1.125 0.000215462
1.1265 0.000208724
1.128 0.000203835
1.13084 0.0001973
1.13368 0.000193524
1.13657 0.000190937
1.13947 0.000189514
1.14025 0.000189615
1.14103 0.000189562
1.14321 0.000190684
1.14539 0.000192242
1.14842 0.000197262
1.15144 0.000201008
1.15453 0.000208724
1.15762 0.000212863
1.15776 0.000213344
1.15789 0.000213568
1.16091 0.000223824
1.16392 0.000231839
1.16714 0.000246947
1.17036 0.00025413
1.17302 0.000266463
1.17568 0.000275276
1.17631 0.000278466
1.17694 0.000281163
1.1803 0.000301231
1.18366 0.000317596
1.18709 0.000332038
1.19052 0.000344714
1.19248 0.000348643
1.19444 0.000353813
1.19598 0.000358581
1.19752 0.000362524
1.2011 0.000367585
1.20467 0.000372147
1.20833 0.000374969
1.21198 0.000380252
1.21313 0.000381268
1.21429 0.000383598
1.21686 0.000386861
1.21944 0.000390968
1.22325 0.000392563
1.22706 0.000402876
1.23095 0.000400745
1.23484 0.000412485
1.23507 0.000411354
1.23529 0.000411393
1.23904 0.000396565
1.24278 0.000395902
1.24684 0.000356926
1.2509 0.000354984
1.25424 0.000329896
1.25758 0.000300325
1.25838 0.000291922
1.25918 0.000287392
1.26341 0.000262083
1.26764 0.000227043
1.27197 0.000217941
1.27629 0.000180708
1.27877 0.000178773
1.28125 0.000170494
1.28318 0.000169847
1.28511 0.000161095
1.28962 0.000171564
1.29412 0.000165391
1.29873 0.000183103
1.30333 0.000188262
1.30489 0.000194959
1.30645 0.000200915
1.30959 0.000215645
1.31273 0.000224678
1.31753 0.000238639
1.32233 0.000254741
1.32723 0.000260793
1.33213 0.000273558
1.33273 0.00027361
1.33333 0.000274217
1.33774 0.000274162
1.34214 0.000279314
1.34725 0.000277321
1.35236 0.000283948
1.35722 0.000285949
1.36207 0.000291762
1.36244 0.000291899
1.3628 0.000292343
1.36813 0.000295254
1.37346 0.000303309
1.37891 0.000301404
1.38435 0.00031613
1.3886 0.000314672
1.39286 0.000320303
1.39416 0.000320016
1.39547 0.000322383
1.40115 0.000312567
1.40682 0.00031516
1.41262 0.000309002
1.41842 0.000299264
1.42217 0.000294857
1.42593 0.000284943
1.42809 0.000281512
1.43026 0.000276085
1.43631 0.000276031
1.44236 0.000263777
1.44853 0.000266961
1.45471 0.000264116
1.45812 0.000266641
1.46154 0.000267882
1.46443 0.000269985
1.46732 0.000270522
1.47376 0.000277491
1.4802 0.000279042
1.48678 0.000288621
1.49335 0.000291969
1.49668 0.000299559
1.5 0.000305666
1.50339 0.000312561
1.50679 0.000317294
1.51364 0.000338379
1.5205 0.00035668
1.52751 0.000372766
1.53451 0.000390688
1.53809 0.000393513
1.54167 0.000396797
1.54524 0.000399199
1.54882 0.000403803
1.55612 0.00040328
1.56343 0.000405399
1.57089 0.000397315
1.57835 0.000388986
1.58265 0.000377778
1.58696 0.000365667
1.59027 0.000357968
1.59359 0.0003501
1.60137 0.000327913
1.60915 0.000301826
1.61709 0.000284447
1.62504 0.000262505
1.6307 0.000255513
1.63636 0.000247636
1.63881 0.000245212
1.64127 0.000241633
1.64955 0.000236767
1.65784 0.000230456
1.6663 0.000225485
1.67476 0.000220913
1.68262 0.000217121
1.69048 0.000213815
1.69126 0.000213592
1.69205 0.000213429
1.70087 0.000212784
1.7097 0.000212593
1.71871 0.000212538
1.72772 0.000212441
1.73693 0.000210484
1.74613 0.000207485
1.74806 0.000206704
1.75 0.000205593
1.75746 0.000203123
1.76493 0.000198564
1.77453 0.000194638
1.78412 0.000186089
1.79393 0.00018011
1.80373 0.000170886
1.80976 0.000165703
1.81579 0.000159441
1.81977 0.000155885
1.82375 0.000151665
1.83397 0.000141563
1.8442 0.000130389
1.85464 0.000120503
1.86508 0.000110864
1.87574 0.000103527
1.8864 9.6626e-05
1.88764 9.60295e-05
1.88889 9.54559e-05
1.89853 9.11525e-05
1.90818 8.69099e-05
1.91929 8.32205e-05
1.93041 7.94768e-05
1.94177 7.71065e-05
1.95312 7.47304e-05
1.96186 7.32972e-05
1.97059 7.18939e-05
1.97345 7.14634e-05
1.97632 7.1016e-05
1.98816 6.93983e-05
2 6.76508e-05
