0 	0 	0 	0 	0 	0 	0
0.000963618 	-0.0121273 	-0.00103309 	0.0291224 	-0.0424057 	0.000290359 	0.00121033
0.00192724 	-0.0170493 	-0.00193457 	0.0497271 	-0.0852107 	0.000585674 	0.00239649
0.00290853 	-0.0238217 	-0.00324188 	0.0676649 	-0.109094 	0.000988962 	0.00288353
0.00388982 	-0.0289287 	-0.00438255 	0.0775977 	-0.13272 	0.00141299 	0.00340096
0.00488911 	-0.033992 	-0.00537953 	0.0909174 	-0.153471 	0.00188002 	0.00382531
0.0058884 	-0.0395095 	-0.0060527 	0.094221 	-0.173848 	0.00238488 	0.00429565
0.00690601 	-0.0439425 	-0.00633398 	0.103166 	-0.19121 	0.00288757 	0.00468052
0.00792363 	-0.0499633 	-0.00604476 	0.100775 	-0.208124 	0.00344859 	0.00510642
0.00895991 	-0.0545397 	-0.00532103 	0.10535 	-0.221962 	0.00395254 	0.00543713
0.00999619 	-0.0612884 	-0.00383533 	0.0984154 	-0.235347 	0.00453696 	0.00579019
0.0110515 	-0.0663589 	-0.00200348 	0.0986446 	-0.245932 	0.0050256 	0.00602779
0.0121068 	-0.0739264 	0.000666916 	0.0884419 	-0.256127 	0.00561737 	0.0062636
0.0131814 	-0.0795522 	0.00362383 	0.0844292 	-0.264013 	0.00608466 	0.00638317
0.0142561 	-0.0878778 	0.00730838 	0.0721341 	-0.271603 	0.00667431 	0.00647112
0.0153504 	-0.0939926 	0.0113668 	0.0641763 	-0.277397 	0.00711922 	0.00647766
0.0164448 	-0.102988 	0.0158304 	0.0507541 	-0.282978 	0.00769892 	0.00641431
0.0175592 	-0.109521 	0.0208866 	0.0393975 	-0.28719 	0.00811992 	0.00632804
0.0186736 	-0.11918 	0.0258949 	0.0256298 	-0.291248 	0.00868062 	0.00612727
0.0198085 	-0.126134 	0.0318184 	0.0115979 	-0.294258 	0.00907202 	0.00596144
0.0209433 	-0.136519 	0.037149 	-0.00185214 	-0.29715 	0.00960125 	0.00563882
0.022099 	-0.143991 	0.0438234 	-0.0177358 	-0.299227 	0.00995452 	0.00538708
0.0232547 	-0.155121 	0.0492884 	-0.0301831 	-0.301199 	0.0104374 	0.00495001
0.0244316 	-0.163275 	0.0565181 	-0.0470654 	-0.302536 	0.0107411 	0.00459083
0.0256084 	-0.175021 	0.0619288 	-0.0577898 	-0.303761 	0.0111624 	0.00403505
0.0268069 	-0.183933 	0.0695762 	-0.074646 	-0.304498 	0.0114059 	0.00354833
0.0280054 	-0.196026 	0.0747714 	-0.0831128 	-0.305104 	0.0117537 	0.00286892
0.0292258 	-0.205639 	0.0826214 	-0.0988886 	-0.305354 	0.0119314 	0.00225329
0.0304462 	-0.21777 	0.087503 	-0.104814 	-0.30545 	0.0122006 	0.001459
0.0316891 	-0.227948 	0.0952316 	-0.118623 	-0.305304 	0.0123153 	0.000729737
0.0329319 	-0.239865 	0.0997515 	-0.122025 	-0.304992 	0.0125085 	-0.000155142
0.0341975 	-0.250318 	0.107198 	-0.133307 	-0.304525 	0.0125704 	-0.00097969
0.0354631 	-0.261858 	0.111366 	-0.134472 	-0.303895 	0.0126968 	-0.00192747
0.036752 	-0.272268 	0.11842 	-0.142916 	-0.30316 	0.0127205 	-0.00282838
0.0380408 	-0.283292 	0.122304 	-0.142295 	-0.302285 	0.0127915 	-0.00381747
0.0393533 	-0.293417 	0.128884 	-0.14781 	-0.301314 	0.0127941 	-0.00476499
0.0406657 	-0.303723 	0.132571 	-0.145896 	-0.300239 	0.012823 	-0.00577425
0.0420023 	-0.313304 	0.138647 	-0.148742 	-0.299053 	0.01282 	-0.00673215
0.0433388 	-0.322597 	0.14221 	-0.146056 	-0.297802 	0.0128194 	-0.00773841
0.0446999 	-0.33134 	0.1478 	-0.146659 	-0.296424 	0.0128218 	-0.00867419
0.0460609 	-0.339249 	0.151281 	-0.143656 	-0.295016 	0.0128037 	-0.00965049
0.047447 	-0.346823 	0.156431 	-0.142605 	-0.293483 	0.0128192 	-0.010539
0.048833 	-0.352929 	0.159837 	-0.139651 	-0.291947 	0.0127972 	-0.0114557
0.0502444 	-0.358988 	0.164583 	-0.137516 	-0.290314 	0.0128356 	-0.012286
0.0516559 	-0.362971 	0.167882 	-0.134965 	-0.288698 	0.0128238 	-0.0131216
0.0530932 	-0.367218 	0.17224 	-0.132194 	-0.287013 	0.0128981 	-0.0138934
0.0545305 	-0.368978 	0.175371 	-0.130179 	-0.285369 	0.0129108 	-0.0146338
0.0559942 	-0.371232 	0.179314 	-0.126988 	-0.283658 	0.0130376 	-0.0153358
0.0574579 	-0.370854 	0.182206 	-0.125388 	-0.282021 	0.013088 	-0.0159645
0.0589484 	-0.37109 	0.185666 	-0.121803 	-0.280295 	0.0132814 	-0.0165705
0.060439 	-0.368848 	0.188236 	-0.120294 	-0.278683 	0.013379 	-0.0170728
0.0619568 	-0.367222 	0.191177 	-0.116305 	-0.276952 	0.0136459 	-0.0175575
0.0634747 	-0.363544 	0.193326 	-0.114449 	-0.275378 	0.0137965 	-0.0179239
0.0650204 	-0.360403 	0.195729 	-0.10995 	-0.273657 	0.0141395 	-0.0182858
0.0665661 	-0.355837 	0.197348 	-0.10729 	-0.272133 	0.0143457 	-0.018519
0.0681402 	-0.351694 	0.199202 	-0.102121 	-0.270438 	0.0147645 	-0.0187792
0.0697143 	-0.346892 	0.200178 	-0.0982037 	-0.268968 	0.0150287 	-0.0188945
0.0713172 	-0.342373 	0.201506 	-0.0921784 	-0.267315 	0.0155249 	-0.0190845
0.0729201 	-0.33805 	0.201742 	-0.0865424 	-0.265889 	0.0158537 	-0.01911
0.0745524 	-0.333843 	0.202592 	-0.0794447 	-0.264285 	0.0164317 	-0.019248
0.0761848 	-0.330655 	0.202005 	-0.0715558 	-0.262885 	0.0168338 	-0.0192032
0.077847 	-0.327379 	0.202413 	-0.0630919 	-0.261314 	0.017499 	-0.0192707
0.0795093 	-0.325746 	0.200895 	-0.0522515 	-0.259912 	0.017986 	-0.0191365
0.0812021 	-0.323801 	0.200841 	-0.0419888 	-0.258347 	0.0187473 	-0.0191002
0.0828948 	-0.323655 	0.198221 	-0.0273969 	-0.25691 	0.0193353 	-0.0188428
0.0846186 	-0.32316 	0.197596 	-0.0148223 	-0.255329 	0.0202009 	-0.0186775
0.0863424 	-0.32398 	0.193668 	0.00401358 	-0.253832 	0.020905 	-0.018284
0.0880979 	-0.324665 	0.192291 	0.0192646 	-0.252218 	0.0218783 	-0.0179804
0.0898533 	-0.325569 	0.186943 	0.0418337 	-0.250647 	0.0227096 	-0.0174677
0.0916409 	-0.32675 	0.184688 	0.0595716 	-0.248997 	0.0237922 	-0.0170258
0.0934285 	-0.326671 	0.178161 	0.0837685 	-0.24736 	0.024757 	-0.0164175
0.0952489 	-0.327407 	0.175155 	0.102865 	-0.245689 	0.025947 	-0.0158504
0.0970693 	-0.325475 	0.16823 	0.125226 	-0.244019 	0.027042 	-0.0151707
0.0989231 	-0.32479 	0.164954 	0.143797 	-0.242356 	0.0283318 	-0.0145096
0.100777 	-0.320494 	0.158772 	0.16106 	-0.240697 	0.0295426 	-0.0137898
0.102665 	-0.317714 	0.155926 	0.177427 	-0.239077 	0.0309151 	-0.013077
0.104552 	-0.311292 	0.151447 	0.188586 	-0.237473 	0.0322204 	-0.0123592
0.106475 	-0.306232 	0.149701 	0.201999 	-0.235949 	0.0336482 	-0.011648
0.108397 	-0.298278 	0.147385 	0.208408 	-0.234457 	0.0350234 	-0.0109823
0.110355 	-0.291118 	0.147132 	0.219242 	-0.233098 	0.0364811 	-0.0103249
0.112313 	-0.281821 	0.146978 	0.223343 	-0.231782 	0.0379076 	-0.00975201
0.114306 	-0.272788 	0.148244 	0.232816 	-0.230647 	0.0393794 	-0.0091753
0.1163 	-0.262023 	0.150012 	0.236955 	-0.229558 	0.0408452 	-0.00871083
0.11833 	-0.250795 	0.152557 	0.246625 	-0.228672 	0.0423222 	-0.00821765
0.12036 	-0.238105 	0.155925 	0.253107 	-0.227827 	0.0438216 	-0.0078493
0.122428 	-0.224523 	0.159254 	0.26371 	-0.227181 	0.0452985 	-0.00744684
0.124495 	-0.210277 	0.16367 	0.273615 	-0.22657 	0.0468269 	-0.0071635
0.1266 	-0.195087 	0.167357 	0.28454 	-0.226139 	0.0482979 	-0.00685773
0.128705 	-0.180811 	0.172402 	0.296821 	-0.22573 	0.049837 	-0.0066594
0.130849 	-0.165023 	0.176231 	0.307203 	-0.225456 	0.051294 	-0.00642379
0.132993 	-0.15163 	0.181468 	0.320851 	-0.225182 	0.0528177 	-0.00629771
0.135177 	-0.135619 	0.185346 	0.329791 	-0.22498 	0.0542467 	-0.00605691
0.13736 	-0.12254 	0.190604 	0.344022 	-0.224756 	0.0557278 	-0.00594315
0.139583 	-0.106012 	0.194566 	0.350395 	-0.224549 	0.0571095 	-0.0056244
0.141806 	-0.0919881 	0.200071 	0.363655 	-0.2243 	0.0585229 	-0.00544174
0.14407 	-0.074938 	0.204065 	0.366338 	-0.224049 	0.0598345 	-0.00504039
0.146334 	-0.0594973 	0.209913 	0.376632 	-0.223744 	0.0611596 	-0.00476304
0.14864 	-0.0424854 	0.213833 	0.37476 	-0.223468 	0.0623787 	-0.00429993
0.150946 	-0.0259257 	0.220261 	0.380094 	-0.223128 	0.0635973 	-0.00394628
0.153293 	-0.00997927 	0.224019 	0.373263 	-0.222877 	0.0647086 	-0.00341754
0.155641 	0.00700724 	0.231168 	0.372407 	-0.222557 	0.0658094 	-0.00299128
0.158032 	0.0209154 	0.234735 	0.36119 	-0.222373 	0.0668138 	-0.00240022
0.160423 	0.0370381 	0.24246 	0.354252 	-0.222126 	0.0677912 	-0.00189762
0.162858 	0.0486031 	0.245814 	0.340569 	-0.222035 	0.0687079 	-0.00130631
0.165293 	0.0626332 	0.253806 	0.328142 	-0.221903 	0.0695724 	-0.000775793
0.167772 	0.0720407 	0.256689 	0.315505 	-0.221915 	0.0704257 	-0.000310716
0.170252 	0.0834363 	0.264595 	0.298914 	-0.221901 	0.0711991 	0.000120044
0.172776 	0.090521 	0.266456 	0.292228 	-0.222002 	0.0719943 	0.000341071
0.175301 	0.0993865 	0.273762 	0.27484 	-0.222071 	0.0726945 	0.000537453
0.177873 	0.103639 	0.273717 	0.279521 	-0.222216 	0.0734082 	0.000469872
0.180444 	0.110237 	0.279576 	0.267065 	-0.222292 	0.0740381 	0.000389646
0.183062 	0.112059 	0.276539 	0.284914 	-0.222426 	0.0746321 	5.26768e-05
0.185681 	0.116503 	0.28 	0.283399 	-0.222439 	0.0751737 	-0.000273535
0.188347 	0.118031 	0.273506 	0.307974 	-0.222555 	0.0756104 	-0.00081877
0.191013 	0.120611 	0.273753 	0.319895 	-0.222517 	0.076036 	-0.00131554
0.193729 	0.124602 	0.264873 	0.338109 	-0.222648 	0.0763038 	-0.00199686
0.196444 	0.126122 	0.261393 	0.35771 	-0.222643 	0.0766008 	-0.00258311
0.199209 	0.133815 	0.252804 	0.359752 	-0.222825 	0.0767271 	-0.00336707
0.201974 	0.135417 	0.246441 	0.374962 	-0.22295 	0.0769189 	-0.00405402
0.20479 	0.145499 	0.240744 	0.362542 	-0.223245 	0.0769684 	-0.00494893
0.207606 	0.147949 	0.234098 	0.365122 	-0.223589 	0.0771166 	-0.00583466
0.210473 	0.157248 	0.231734 	0.347334 	-0.224065 	0.0771785 	-0.00686451
0.213341 	0.160029 	0.227436 	0.338683 	-0.224632 	0.07736 	-0.00802048
0.216261 	0.165236 	0.226819 	0.323684 	-0.225259 	0.0774767 	-0.00916285
0.219181 	0.166535 	0.225758 	0.311314 	-0.225901 	0.0777259 	-0.0105098
0.222155 	0.165651 	0.225157 	0.302546 	-0.22659 	0.0778764 	-0.01169
0.225128 	0.16335 	0.226708 	0.292932 	-0.227165 	0.078158 	-0.0130525
0.228156 	0.155819 	0.225261 	0.289522 	-0.22784 	0.0783046 	-0.0142118
0.231184 	0.148579 	0.228419 	0.284737 	-0.228321 	0.0785413 	-0.0154685
0.234268 	0.134933 	0.225786 	0.283617 	-0.228886 	0.0786667 	-0.0165327
0.237352 	0.122812 	0.229657 	0.28273 	-0.2292 	0.0788176 	-0.0175744
0.240492 	0.105377 	0.22582 	0.281649 	-0.22947 	0.0789257 	-0.0184227
0.243632 	0.0899025 	0.229596 	0.283494 	-0.229348 	0.0789943 	-0.019112
0.24683 	0.0736182 	0.225425 	0.282528 	-0.229023 	0.079052 	-0.0196706
0.250028 	0.0576168 	0.228724 	0.286407 	-0.22814 	0.0790316 	-0.0199672
0.253285 	0.0484356 	0.226439 	0.286564 	-0.227003 	0.0789884 	-0.0202668
0.256541 	0.036276 	0.229783 	0.291208 	-0.225353 	0.0788725 	-0.0202515
0.259857 	0.0378901 	0.231473 	0.29242 	-0.223583 	0.0787016 	-0.0203695
0.263174 	0.0346204 	0.235726 	0.295627 	-0.221597 	0.0784943 	-0.0201465
0.266551 	0.0459847 	0.240925 	0.296284 	-0.219611 	0.0782317 	-0.0201518
0.269928 	0.0536195 	0.246293 	0.295745 	-0.217686 	0.0779699 	-0.0198595
0.273367 	0.0695071 	0.252394 	0.293647 	-0.215725 	0.0776756 	-0.0198777
0.276806 	0.0854529 	0.258207 	0.288187 	-0.213904 	0.0774212 	-0.0196819
0.280308 	0.100682 	0.262929 	0.28239 	-0.211965 	0.077101 	-0.0198644
0.28381 	0.120599 	0.267362 	0.27277 	-0.210114 	0.0768847 	-0.019793
0.287376 	0.132966 	0.270316 	0.264742 	-0.208125 	0.0765252 	-0.0201532
0.290942 	0.1527 	0.271592 	0.253454 	-0.206255 	0.0763407 	-0.0200459
0.294574 	0.162486 	0.274014 	0.245957 	-0.204369 	0.075969 	-0.0203923
0.298206 	0.179074 	0.272454 	0.235628 	-0.202751 	0.0758118 	-0.0201153
0.301904 	0.187257 	0.275651 	0.230258 	-0.20133 	0.0754489 	-0.0202086
0.305602 	0.199771 	0.273146 	0.221645 	-0.20021 	0.0752663 	-0.0198413
0.309368 	0.206395 	0.277572 	0.21742 	-0.199407 	0.0748891 	-0.019673
0.313135 	0.215075 	0.275949 	0.209003 	-0.198786 	0.0746063 	-0.0194138
0.31697 	0.219311 	0.281441 	0.202801 	-0.198427 	0.0742302 	-0.0191929
0.320805 	0.22435 	0.281757 	0.191785 	-0.198136 	0.0738578 	-0.0192208
0.324711 	0.225833 	0.288112 	0.180003 	-0.197953 	0.0735142 	-0.0191464
0.328616 	0.227011 	0.290689 	0.163718 	-0.197755 	0.073107 	-0.0195055
0.332593 	0.225129 	0.297878 	0.14409 	-0.197542 	0.0727695 	-0.0196396
0.336571 	0.220036 	0.302749 	0.121579 	-0.197281 	0.0723253 	-0.0202727
0.340621 	0.211505 	0.310971 	0.0943634 	-0.196902 	0.0719487 	-0.0205638
0.344671 	0.19563 	0.317909 	0.0676679 	-0.196512 	0.071462 	-0.0213482
0.348795 	0.176553 	0.327224 	0.0365759 	-0.195866 	0.0710796 	-0.021655
0.35292 	0.148906 	0.33515 	0.0102573 	-0.195235 	0.0706667 	-0.0223449
0.35712 	0.119772 	0.344284 	-0.0184784 	-0.194369 	0.0703088 	-0.0224557
0.36132 	0.086169 	0.35114 	-0.0392493 	-0.193553 	0.0700453 	-0.0228101
0.365597 	0.0528845 	0.357446 	-0.0599258 	-0.192695 	0.0697309 	-0.0226109
0.369874 	0.0208538 	0.361472 	-0.0711016 	-0.192044 	0.0695984 	-0.0225874
0.37423 	-0.00977194 	0.36311 	-0.0807581 	-0.191366 	0.0694373 	-0.0223494
0.378585 	-0.0365312 	0.364423 	-0.0807307 	-0.191093 	0.069505 	-0.022284
0.383021 	-0.0614634 	0.36213 	-0.0793787 	-0.190517 	0.0696315 	-0.0224986
0.387456 	-0.0830892 	0.362274 	-0.0698949 	-0.190397 	0.0699832 	-0.0228252
0.391973 	-0.103824 	0.358158 	-0.0598226 	-0.18987 	0.0704384 	-0.0235046
0.39649 	-0.121522 	0.358148 	-0.0457285 	-0.189703 	0.0710398 	-0.0240758
0.401089 	-0.140975 	0.353345 	-0.0308141 	-0.189416 	0.0716661 	-0.0247123
0.405689 	-0.15533 	0.352642 	-0.0180708 	-0.189304 	0.0723451 	-0.0249674
0.410373 	-0.174664 	0.346758 	-0.0033765 	-0.18936 	0.0728911 	-0.0250791
0.415057 	-0.185754 	0.343832 	0.00312208 	-0.189435 	0.0734639 	-0.024708
0.419827 	-0.203346 	0.336132 	0.0118566 	-0.189747 	0.0737839 	-0.0240475
0.424597 	-0.210763 	0.32991 	0.0089521 	-0.190067 	0.074167 	-0.0230262
0.429454 	-0.221736 	0.321059 	0.00675885 	-0.190606 	0.0742454 	-0.0216054
0.434311 	-0.222305 	0.312132 	-0.0069078 	-0.191202 	0.0743904 	-0.0201767
0.439258 	-0.216816 	0.303291 	-0.0197411 	-0.19193 	0.0742878 	-0.0184312
0.444204 	-0.201791 	0.292111 	-0.0401593 	-0.192757 	0.0741821 	-0.0171353
0.449241 	-0.16962 	0.281387 	-0.0544362 	-0.193579 	0.0739978 	-0.0157032
0.454279 	-0.130971 	0.265872 	-0.0705635 	-0.194542 	0.0736921 	-0.0149434
0.459408 	-0.0778563 	0.249342 	-0.0761225 	-0.195343 	0.0735325 	-0.0143059
0.464538 	-0.0249411 	0.227678 	-0.0801374 	-0.19638 	0.0731021 	-0.0142802
0.469761 	0.0240482 	0.205009 	-0.0767055 	-0.197128 	0.0731022 	-0.0147482
0.474985 	0.0664397 	0.179502 	-0.0714614 	-0.198224 	0.0727919 	-0.0155734
0.480305 	0.0943893 	0.153888 	-0.0631537 	-0.198935 	0.0730652 	-0.0170913
0.485624 	0.115251 	0.127334 	-0.0526248 	-0.199936 	0.0731186 	-0.0185455
0.491041 	0.126996 	0.0995362 	-0.0404233 	-0.200466 	0.0736566 	-0.0206204
0.496458 	0.133136 	0.0702813 	-0.0252944 	-0.2011 	0.074096 	-0.0222099
0.501975 	0.135111 	0.0431479 	-0.0130406 	-0.201441 	0.0748848 	-0.024176
0.507491 	0.130025 	0.0148418 	0.000262282 	-0.201721 	0.0756037 	-0.0255175
0.513109 	0.124542 	-0.00358934 	0.00637017 	-0.201964 	0.0765989 	-0.0269559
0.518726 	0.112274 	-0.0211813 	0.00932753 	-0.201893 	0.0774089 	-0.027901
0.524447 	0.106549 	-0.0278803 	0.00902705 	-0.201833 	0.0784473 	-0.0287934
0.530167 	0.0990774 	-0.033058 	0.00391007 	-0.201196 	0.0791647 	-0.029353
0.535993 	0.100223 	-0.0324022 	0.00307913 	-0.200439 	0.0801594 	-0.0299473
0.541818 	0.103387 	-0.0314609 	-0.00027078 	-0.198985 	0.0806262 	-0.030272
0.547751 	0.111396 	-0.0287529 	0.00196892 	-0.197093 	0.0815391 	-0.030807
0.553683 	0.121359 	-0.026653 	0.00417214 	-0.194467 	0.0817419 	-0.031136
0.559724 	0.132468 	-0.0239158 	0.0079288 	-0.191237 	0.0824161 	-0.0315703
0.565765 	0.144637 	-0.0211119 	0.0130047 	-0.187335 	0.0824291 	-0.0318734
0.571917 	0.155456 	-0.0177392 	0.0164822 	-0.182957 	0.0826879 	-0.0318902
0.578069 	0.166389 	-0.0138347 	0.0220049 	-0.178141 	0.0824811 	-0.0316879
0.584334 	0.174878 	-0.00903554 	0.0250714 	-0.173097 	0.082308 	-0.0308413
0.590599 	0.182847 	-0.00428151 	0.0306684 	-0.168074 	0.0818456 	-0.0297121
0.596979 	0.188094 	0.00180059 	0.034462 	-0.163286 	0.0813098 	-0.0279206
0.603358 	0.192542 	0.00700735 	0.0407943 	-0.158925 	0.0805907 	-0.0260427
0.609855 	0.19444 	0.013394 	0.0465059 	-0.155197 	0.0796872 	-0.023883
0.616352 	0.195889 	0.0184396 	0.0538368 	-0.151856 	0.0785956 	-0.021846
0.622968 	0.195203 	0.0237411 	0.0614736 	-0.149094 	0.0770933 	-0.0196523
0.629583 	0.195382 	0.0281154 	0.0684697 	-0.146265 	0.0754752 	-0.0176093
0.636321 	0.193988 	0.0314515 	0.0757821 	-0.143843 	0.0732761 	-0.0150402
0.643058 	0.19539 	0.0358647 	0.0793551 	-0.140837 	0.071022 	-0.0125259
0.649919 	0.196159 	0.038759 	0.0817661 	-0.138047 	0.0682808 	-0.00941749
0.656779 	0.200918 	0.0456438 	0.077957 	-0.134513 	0.0651558 	-0.00614755
0.663766 	0.206442 	0.05181 	0.0703797 	-0.131196 	0.0618518 	-0.00229308
0.670753 	0.214988 	0.0636766 	0.0568336 	-0.127304 	0.0579587 	0.00218604
0.677867 	0.224882 	0.0752473 	0.0386629 	-0.123873 	0.0541959 	0.00741976
0.684982 	0.23487 	0.0898338 	0.0192941 	-0.119867 	0.0501764 	0.0135829
0.692227 	0.244994 	0.101362 	-0.002035 	-0.115763 	0.0465394 	0.0197585
0.699473 	0.252037 	0.109535 	-0.0188692 	-0.110834 	0.0429122 	0.0264357
0.706851 	0.254949 	0.110866 	-0.0316828 	-0.104685 	0.0398152 	0.0321406
0.714229 	0.250133 	0.106046 	-0.0368586 	-0.0975607 	0.0365269 	0.0376773
0.721742 	0.233635 	0.0982255 	-0.0304929 	-0.0892017 	0.0336261 	0.0427769
0.729256 	0.20358 	0.0877544 	-0.0145809 	-0.0800824 	0.0301731 	0.0472528
0.736907 	0.166875 	0.0770804 	0.0096772 	-0.0703196 	0.0269829 	0.0518992
0.744558 	0.12423 	0.0627656 	0.039474 	-0.0597404 	0.0229146 	0.0555426
0.75235 	0.090415 	0.0451917 	0.0650634 	-0.048393 	0.0189013 	0.0584389
0.760142 	0.0643845 	0.0247104 	0.0949139 	-0.0356029 	0.0136951 	0.0606342
0.768076 	0.0479574 	0.00435707 	0.122451 	-0.0217745 	0.00799653 	0.0612365
0.776011 	0.0392504 	-0.00936173 	0.157765 	-0.00663747 	0.00128735 	0.0616887
0.784091 	0.0345748 	-0.0216695 	0.19587 	0.00942707 	-0.00574646 	0.0614761
0.792171 	0.0359504 	-0.0255796 	0.234299 	0.0259977 	-0.0131737 	0.0607925
0.800399 	0.0412843 	-0.0306718 	0.272478 	0.0432215 	-0.0207655 	0.0607058
0.808627 	0.0526347 	-0.031423 	0.301432 	0.0607933 	-0.0285717 	0.0591736
0.817006 	0.0672952 	-0.0360469 	0.328114 	0.0787721 	-0.0366601 	0.0579403
0.825385 	0.0847639 	-0.041127 	0.345571 	0.0976908 	-0.0449104 	0.055013
0.833918 	0.101674 	-0.0503983 	0.361856 	0.117426 	-0.0534184 	0.0515249
0.842451 	0.117273 	-0.062065 	0.374498 	0.138965 	-0.0625617 	0.0474193
0.85114 	0.132625 	-0.0719089 	0.383238 	0.162014 	-0.07222 	0.0424716
0.85983 	0.145562 	-0.0848606 	0.392832 	0.187617 	-0.0827196 	0.0380994
0.868678 	0.167597 	-0.0884671 	0.389827 	0.215727 	-0.0937256 	0.0327252
0.877527 	0.192396 	-0.0960024 	0.387186 	0.246619 	-0.104806 	0.0277894
0.886538 	0.231021 	-0.0985346 	0.363432 	0.281064 	-0.11581 	0.0219617
0.895549 	0.280224 	-0.104405 	0.332059 	0.317474 	-0.125949 	0.0159743
0.904725 	0.33817 	-0.116721 	0.282296 	0.357108 	-0.135699 	0.00983082
0.913901 	0.40763 	-0.130933 	0.223577 	0.397607 	-0.144121 	0.00377382
0.923246 	0.480383 	-0.148052 	0.167425 	0.440288 	-0.152656 	-0.00163518
0.93259 	0.557588 	-0.164931 	0.116319 	0.482854 	-0.159797 	-0.00634832
0.942106 	0.635659 	-0.176567 	0.0876698 	0.527356 	-0.167165 	-0.00972975
0.951622 	0.711024 	-0.187048 	0.0691929 	0.570294 	-0.172968 	-0.0122343
0.961313 	0.786852 	-0.195422 	0.071408 	0.613765 	-0.178543 	-0.013247
0.971003 	0.854477 	-0.202668 	0.077384 	0.653349 	-0.182215 	-0.0136075
0.980872 	0.921193 	-0.211601 	0.0925224 	0.690875 	-0.185247 	-0.0129517
0.99074 	0.975498 	-0.218827 	0.106431 	0.723121 	-0.186413 	-0.0118152
1.00079 	1.02557 	-0.227397 	0.118237 	0.752177 	-0.186958 	-0.0103741
1.01084 	1.06221 	-0.234048 	0.127214 	0.776516 	-0.186196 	-0.00859868
1.02107 	1.09202 	-0.240378 	0.131335 	0.798078 	-0.185137 	-0.00695358
1.03131 	1.11153 	-0.245712 	0.134426 	0.816471 	-0.183512 	-0.00522834
1.04173 	1.12563 	-0.250372 	0.13623 	0.833109 	-0.181944 	-0.00382763
1.05215 	1.13487 	-0.255326 	0.138238 	0.847954 	-0.180411 	-0.00251245
1.06276 	1.14294 	-0.260046 	0.141524 	0.861767 	-0.179131 	-0.00155585
1.07337 	1.15007 	-0.265495 	0.145182 	0.874331 	-0.178075 	-0.000723588
1.08418 	1.15811 	-0.270483 	0.15146 	0.88588 	-0.177302 	-9.41167e-05
1.09499 	1.16636 	-0.275884 	0.15776 	0.896347 	-0.176649 	0.000291273
1.10599 	1.1743 	-0.2804 	0.167288 	0.906005 	-0.1763 	0.00043956
1.117 	1.18242 	-0.284748 	0.176344 	0.914964 	-0.175867 	0.000144719
1.1282 	1.18814 	-0.287673 	0.188516 	0.923611 	-0.175613 	-0.000472109
1.13941 	1.19404 	-0.28984 	0.199672 	0.931896 	-0.175059 	-0.00138958
1.15082 	1.19612 	-0.289707 	0.212806 	0.940109 	-0.174605 	-0.00219543
1.16224 	1.19829 	-0.288353 	0.224187 	0.948052 	-0.173809 	-0.00290721
1.17386 	1.19547 	-0.283158 	0.234895 	0.955893 	-0.173062 	-0.00311878
1.18548 	1.19254 	-0.276454 	0.243149 	0.963341 	-0.171967 	-0.00312539
1.19731 	1.18369 	-0.265601 	0.24721 	0.970491 	-0.170693 	-0.00287303
1.20915 	1.17497 	-0.254024 	0.248591 	0.977174 	-0.169125 	-0.00265255
1.2212 	1.16031 	-0.240094 	0.242717 	0.983509 	-0.167363 	-0.00251148
1.23325 	1.14673 	-0.226498 	0.234783 	0.989469 	-0.165467 	-0.00254846
1.24553 	1.12897 	-0.212704 	0.218609 	0.995176 	-0.163592 	-0.00272482
1.2578 	1.11358 	-0.199948 	0.201956 	1.00057 	-0.161728 	-0.00300745
1.2703 	1.09756 	-0.189422 	0.179135 	1.00583 	-0.160068 	-0.00342709
1.2828 	1.08469 	-0.180273 	0.15779 	1.0109 	-0.158503 	-0.00381431
1.29552 	1.07472 	-0.175229 	0.13457 	1.016 	-0.157154 	-0.00428293
1.30825 	1.06731 	-0.171289 	0.114203 	1.02107 	-0.155794 	-0.00463073
1.32121 	1.06412 	-0.171722 	0.0961357 	1.02619 	-0.154402 	-0.00493013
1.33417 	1.06203 	-0.172476 	0.0810436 	1.0312 	-0.152747 	-0.00508319
1.34737 	1.06353 	-0.176084 	0.0701161 	1.03603 	-0.150747 	-0.00506053
1.36057 	1.06475 	-0.179172 	0.0612985 	1.04045 	-0.148285 	-0.00491844
1.37401 	1.06828 	-0.182668 	0.0560354 	1.04441 	-0.145318 	-0.00458524
1.38745 	1.07074 	-0.18531 	0.0518854 	1.04786 	-0.141926 	-0.00422637
1.40114 	1.07414 	-0.186571 	0.0495972 	1.05084 	-0.138174 	-0.00383976
1.41483 	1.07638 	-0.187197 	0.0478854 	1.05351 	-0.134338 	-0.00356166
1.42877 	1.07853 	-0.185966 	0.0468352 	1.05592 	-0.130464 	-0.00342865
1.4427 	1.07986 	-0.184499 	0.0462542 	1.05829 	-0.12683 	-0.0033993
1.4569 	1.08065 	-0.181638 	0.0459957 	1.06071 	-0.12354 	-0.00355542
1.47109 	1.08104 	-0.178876 	0.0461542 	1.06326 	-0.120493 	-0.00369887
1.48555 	1.08123 	-0.175871 	0.046673 	1.06608 	-0.118125 	-0.00391213
1.5 	1.08132 	-0.173137 	0.0473771 	1.06899 	-0.115852 	-0.0039657
1.50339 	1.08135 	-0.172047 	0.0478632 	1.06986 	-0.115071 	-0.00393649
1.50679 	1.08117 	-0.171044 	0.0484443 	1.07073 	-0.114311 	-0.00385416
1.5136 	1.08125 	-0.169047 	0.0493607 	1.07237 	-0.112839 	-0.00370683
1.52041 	1.08101 	-0.167268 	0.0504803 	1.074 	-0.111418 	-0.00348205
1.52046 	1.08101 	-0.167256 	0.050484 	1.07401 	-0.111409 	-0.00348082
1.5205 	1.08101 	-0.167245 	0.0504892 	1.07401 	-0.111401 	-0.00347941
1.52751 	1.0809 	-0.165524 	0.0508644 	1.0751 	-0.110231 	-0.00326064
1.53451 	1.08044 	-0.164083 	0.0515505 	1.07622 	-0.109097 	-0.00299159
1.53809 	1.08039 	-0.163248 	0.0517011 	1.07678 	-0.108546 	-0.00283856
1.54167 	1.08023 	-0.162563 	0.0520441 	1.07734 	-0.10801 	-0.00266329
1.54524 	1.08027 	-0.161632 	0.0523955 	1.07799 	-0.107472 	-0.00249678
1.54882 	1.0802 	-0.160858 	0.0528116 	1.07863 	-0.106952 	-0.00230834
1.55612 	1.08038 	-0.159022 	0.0533044 	1.07991 	-0.105868 	-0.00204478
1.56343 	1.08046 	-0.157518 	0.0540005 	1.08118 	-0.104814 	-0.0017567
1.56363 	1.08047 	-0.157468 	0.0540068 	1.08121 	-0.104785 	-0.00175836
1.56383 	1.08047 	-0.157425 	0.0540205 	1.08124 	-0.104757 	-0.00175955
1.57109 	1.08092 	-0.15566 	0.0543659 	1.08232 	-0.103686 	-0.00182672
1.57835 	1.08139 	-0.154254 	0.0547429 	1.08341 	-0.102645 	-0.00185861
1.58265 	1.08171 	-0.153278 	0.0547637 	1.08396 	-0.102063 	-0.00211588
1.58696 	1.08207 	-0.152471 	0.05485 	1.08452 	-0.101497 	-0.0023632
1.59027 	1.08246 	-0.151775 	0.0548587 	1.08495 	-0.10105 	-0.00256295
1.59359 	1.08288 	-0.151252 	0.0547783 	1.08538 	-0.100613 	-0.00275144
1.60137 	1.08381 	-0.149723 	0.0543717 	1.08616 	-0.0995952 	-0.00328607
1.60915 	1.08484 	-0.148554 	0.0538811 	1.08698 	-0.0986121 	-0.00385004
1.61013 	1.08494 	-0.148371 	0.0537936 	1.08705 	-0.0984738 	-0.00386888
1.61111 	1.08506 	-0.148215 	0.0537149 	1.08713 	-0.0983396 	-0.00389449
1.61807 	1.08613 	-0.147144 	0.0528204 	1.08764 	-0.0973568 	-0.00405454
1.62504 	1.08722 	-0.146351 	0.0517376 	1.08817 	-0.0964034 	-0.00425796
1.6307 	1.08794 	-0.145538 	0.050842 	1.08856 	-0.095552 	-0.00407051
1.63636 	1.08866 	-0.144863 	0.049952 	1.08893 	-0.0947195 	-0.00391123
1.63881 	1.08904 	-0.144593 	0.0494515 	1.08909 	-0.0943497 	-0.00383641
1.64127 	1.08941 	-0.14441 	0.048874 	1.08925 	-0.0939892 	-0.00377238
1.64955 	1.09037 	-0.143444 	0.0471266 	1.0899 	-0.0927461 	-0.00323699
1.65784 	1.09126 	-0.142682 	0.0454098 	1.09052 	-0.0915353 	-0.00273627
1.66031 	1.09145 	-0.142377 	0.0449354 	1.09076 	-0.0911874 	-0.00254861
1.66279 	1.09162 	-0.142067 	0.0445539 	1.09099 	-0.0908454 	-0.00236759
1.66878 	1.09207 	-0.141426 	0.0432675 	1.09154 	-0.0900004 	-0.00192012
1.67476 	1.09252 	-0.140884 	0.0420136 	1.09209 	-0.0891707 	-0.00149028
1.68262 	1.09284 	-0.139943 	0.0406223 	1.09281 	-0.0881489 	-0.000984511
1.69048 	1.09317 	-0.138955 	0.0395509 	1.09351 	-0.0871413 	-0.00049118
1.69126 	1.09319 	-0.138856 	0.0394268 	1.09358 	-0.0870385 	-0.000441175
1.69205 	1.09323 	-0.138772 	0.0392971 	1.09365 	-0.0869373 	-0.000392876
1.70087 	1.09328 	-0.137572 	0.038131 	1.09423 	-0.0858126 	-3.84078e-05
1.7097 	1.09356 	-0.136317 	0.0372562 	1.0948 	-0.0847135 	0.000325936
1.7146 	1.09357 	-0.135597 	0.0367882 	1.09501 	-0.0840928 	0.000402207
1.71951 	1.09361 	-0.134726 	0.0366757 	1.09523 	-0.0834857 	0.000498483
1.72362 	1.09358 	-0.13401 	0.0364878 	1.09541 	-0.0829669 	0.00056976
1.72772 	1.09374 	-0.133296 	0.0363132 	1.0956 	-0.0824612 	0.000656033
1.73693 	1.09373 	-0.131731 	0.0359066 	1.0959 	-0.0813696 	0.000567505
1.74613 	1.09389 	-0.129895 	0.0361179 	1.09621 	-0.0803082 	0.000534627
1.74806 	1.09389 	-0.129577 	0.0360364 	1.09625 	-0.0800975 	0.000482169
1.75 	1.09386 	-0.129175 	0.0361535 	1.09628 	-0.0798938 	0.000438405
1.75746 	1.09384 	-0.127664 	0.0362573 	1.09641 	-0.079087 	0.000250547
1.76493 	1.09395 	-0.126049 	0.0366141 	1.09655 	-0.078305 	9.84865e-05
1.77349 	1.094 	-0.124441 	0.0365926 	1.09662 	-0.0774069 	-0.000105963
1.78205 	1.0939 	-0.122554 	0.0373486 	1.09672 	-0.0765304 	-0.00028421
1.78309 	1.09389 	-0.122308 	0.0374196 	1.09673 	-0.0764218 	-0.000307554
1.78412 	1.0939 	-0.122062 	0.0375056 	1.09675 	-0.0763155 	-0.000327579
1.79393 	1.09402 	-0.12006 	0.0375258 	1.09688 	-0.0752386 	-0.00047013
1.80373 	1.09397 	-0.117849 	0.0384078 	1.09703 	-0.0741743 	-0.000592749
1.80976 	1.09408 	-0.116733 	0.038275 	1.0971 	-0.0735182 	-0.000630601
1.81579 	1.09396 	-0.115451 	0.0387457 	1.09717 	-0.0728727 	-0.000662082
1.81977 	1.09398 	-0.114564 	0.0388539 	1.09721 	-0.0724383 	-0.000685293
1.82375 	1.09394 	-0.113662 	0.0392192 	1.09725 	-0.0720113 	-0.00070285
1.83397 	1.09413 	-0.111717 	0.0388304 	1.09727 	-0.0709955 	-0.000731912
1.8442 	1.09388 	-0.109598 	0.0395422 	1.09728 	-0.0700135 	-0.000752123
1.84777 	1.09392 	-0.108985 	0.0393533 	1.0973 	-0.0696854 	-0.000748198
1.85135 	1.09385 	-0.108317 	0.0393755 	1.09733 	-0.0693647 	-0.000743903
1.85821 	1.09387 	-0.106997 	0.0391419 	1.09737 	-0.0687354 	-0.000735129
1.86508 	1.09372 	-0.105669 	0.0393245 	1.09741 	-0.0681218 	-0.000724733
1.87574 	1.09374 	-0.103858 	0.0387648 	1.09763 	-0.0671638 	-0.00060027
1.8864 	1.09351 	-0.101969 	0.0386538 	1.09787 	-0.0662318 	-0.000475585
1.88764 	1.0935 	-0.101777 	0.0385811 	1.0979 	-0.0661187 	-0.000450739
1.88889 	1.09349 	-0.101573 	0.038525 	1.09794 	-0.0660089 	-0.000426588
1.89853 	1.09345 	-0.099987 	0.0379701 	1.09823 	-0.065139 	-0.000236409
1.90818 	1.0933 	-0.0983841 	0.0376145 	1.09853 	-0.0642954 	-5.39213e-05
1.91837 	1.0932 	-0.0968435 	0.037057 	1.09876 	-0.0633986 	9.19956e-05
1.92857 	1.09305 	-0.0952465 	0.0365403 	1.09901 	-0.062527 	0.000228822
1.92949 	1.09304 	-0.0951021 	0.0364875 	1.09903 	-0.0624467 	0.000241504
1.93041 	1.09302 	-0.0949572 	0.0364433 	1.09905 	-0.0623686 	0.000253488
1.94177 	1.09286 	-0.0933483 	0.0358271 	1.09899 	-0.0613868 	0.00032505
1.95312 	1.09267 	-0.0916843 	0.0352173 	1.09896 	-0.0604196 	0.00039599
1.96186 	1.09249 	-0.0904364 	0.0347774 	1.09867 	-0.0595676 	0.000459618
1.97059 	1.09231 	-0.0891374 	0.0343307 	1.0984 	-0.0587242 	0.000524171
1.97345 	1.09226 	-0.0887211 	0.0341785 	1.09831 	-0.0584445 	0.000545505
1.97632 	1.0922 	-0.0882923 	0.0340295 	1.09822 	-0.058168 	0.000566779
1.98816 	1.09193 	-0.0868087 	0.03344 	1.0976 	-0.0570666 	0.000684583
2 	1.09165 	-0.0852332 	0.0328649 	1.097 	-0.0559783 	0.000795508
