0 1e-10
0.000963618 0.000669914
0.00192724 0.00101263
0.00290853 0.00112934
0.00388982 0.00124484
0.00488911 0.00127794
0.0058884 0.00136004
0.00690601 0.00137262
0.00792363 0.00145245
0.00895991 0.00146177
0.00999619 0.0015354
0.0110515 0.00154313
0.0121068 0.00159781
0.0131814 0.00161046
0.0142561 0.00163808
0.0153504 0.00166253
0.0164448 0.00166345
0.0175592 0.00169479
0.0186736 0.00167593
0.0198085 0.00169784
0.0209433 0.00166298
0.022099 0.00166787
0.0232547 0.00161745
0.0244316 0.00160683
0.0256084 0.00154425
0.0268069 0.00151653
0.0280054 0.00144723
0.0292258 0.00139609
0.0304462 0.00132366
0.0316891 0.00124346
0.0329319 0.00117623
0.0341975 0.00108069
0.0354631 0.00102941
0.036752 0.000933022
0.0380408 0.000894131
0.0393533 0.000803284
0.0406657 0.00077055
0.0420023 0.00068713
0.0433388 0.000659111
0.0446999 0.00058892
0.0460609 0.000566208
0.047447 0.000518037
0.048833 0.000503239
0.0502444 0.000472486
0.0516559 0.000464823
0.0530932 0.000444379
0.0545305 0.00044189
0.0559942 0.000427737
0.0574579 0.000429373
0.0589484 0.000421418
0.060439 0.000425953
0.0619568 0.000424095
0.0634747 0.000430729
0.0650204 0.000433088
0.0665661 0.000442657
0.0681402 0.000448704
0.0697143 0.000462779
0.0713172 0.00047341
0.0729201 0.000495575
0.0745524 0.000514785
0.0761848 0.000554262
0.077847 0.000585066
0.0795093 0.000653107
0.0812021 0.000703672
0.0828948 0.000805383
0.0846186 0.000882035
0.0863424 0.00100942
0.0880979 0.00110317
0.0898533 0.00120701
0.0916409 0.00129192
0.0934285 0.00133341
0.0952489 0.0013798
0.0970693 0.00136684
0.0989231 0.00137961
0.100777 0.00134394
0.102665 0.00134168
0.104552 0.0013162
0.106475 0.00130644
0.108397 0.00129504
0.110355 0.00128202
0.112313 0.00127324
0.114306 0.00125863
0.1163 0.00124338
0.11833 0.00123014
0.12036 0.00121171
0.122428 0.00120092
0.124495 0.00118498
0.1266 0.00117676
0.128705 0.00116517
0.130849 0.00116153
0.132993 0.00115366
0.135177 0.00115603
0.13736 0.00115157
0.139583 0.00115929
0.141806 0.00115937
0.14407 0.00117437
0.146334 0.00118302
0.14864 0.00120847
0.150946 0.00123249
0.153293 0.00126022
0.155641 0.00130131
0.158032 0.00131077
0.160423 0.00135617
0.162858 0.00134383
0.165293 0.00137333
0.167772 0.00135603
0.170252 0.00135362
0.172776 0.00136148
0.175301 0.00134023
0.177873 0.0014234
0.180444 0.00141089
0.183062 0.00152516
0.185681 0.00155012
0.188347 0.00160701
0.191013 0.00166217
0.193729 0.00162121
0.196444 0.00164623
0.199209 0.00149835
0.201974 0.00146127
0.20479 0.0012771
0.207606 0.00117527
0.210473 0.00102766
0.213341 0.000887682
0.216261 0.000796518
0.219181 0.000682708
0.222155 0.000641536
0.225128 0.000589633
0.228156 0.0005778
0.231184 0.0005717
0.234268 0.000572761
0.237352 0.000594462
0.240492 0.000603553
0.243632 0.000656985
0.24683 0.000682672
0.250028 0.00075311
0.253285 0.000810311
0.256541 0.000895455
0.259857 0.000964286
0.263174 0.00107693
0.266551 0.00111624
0.269928 0.00120935
0.273367 0.00121654
0.276806 0.00124431
0.280308 0.00123881
0.28381 0.00119679
0.287376 0.00119188
0.290942 0.00108061
0.294574 0.00108791
0.298206 0.000972309
0.301904 0.000992035
0.305602 0.000934961
0.309368 0.000963341
0.313135 0.000951278
0.31697 0.000990323
0.320805 0.00100762
0.324711 0.00105396
0.328616 0.00108371
0.332593 0.00113106
0.336571 0.00115321
0.340621 0.00118768
0.344671 0.00118034
0.348795 0.00116986
0.35292 0.0011188
0.35712 0.00104018
0.36132 0.000961475
0.365597 0.000847927
0.369874 0.000791059
0.37423 0.000704448
0.378585 0.00068945
0.383021 0.000654748
0.387456 0.0006651
0.391973 0.000669273
0.39649 0.000686351
0.401089 0.000700431
0.405689 0.000711516
0.410373 0.000720491
0.415057 0.00073
0.419827 0.000747665
0.424597 0.00077461
0.429454 0.000839483
0.434311 0.000930763
0.439258 0.00113855
0.444204 0.00136863
0.449241 0.00167835
0.454279 0.00192887
0.459408 0.002013
0.464538 0.00199199
0.469761 0.0017143
0.474985 0.00140489
0.480305 0.00107093
0.485624 0.000797498
0.491041 0.000658238
0.496458 0.000586386
0.501975 0.000567966
0.507491 0.000576289
0.513109 0.00057468
0.518726 0.000572517
0.524447 0.000566045
0.530167 0.000537062
0.535993 0.000517901
0.541818 0.000480373
0.547751 0.000460262
0.553683 0.0004387
0.559724 0.000427181
0.565765 0.000418256
0.571917 0.000413185
0.578069 0.00041141
0.584334 0.000412223
0.590599 0.000413716
0.596979 0.000418586
0.603358 0.000422129
0.609855 0.000428313
0.616352 0.000433647
0.622968 0.000438412
0.629583 0.000445367
0.636321 0.000451622
0.643058 0.000465075
0.649919 0.000480503
0.656779 0.000500223
0.663766 0.000518688
0.670753 0.00052029
0.677867 0.000512101
0.684982 0.000479933
0.692227 0.000453546
0.699473 0.000437739
0.706851 0.000456922
0.714229 0.000510775
0.721742 0.000557596
0.729256 0.000618648
0.736907 0.00060534
0.744558 0.000586841
0.75235 0.000546597
0.760142 0.000510442
0.768076 0.000505485
0.776011 0.000500533
0.784091 0.00051528
0.792171 0.000515525
0.800399 0.000529179
0.808627 0.000518425
0.817006 0.000516576
0.825385 0.000497309
0.833918 0.000490269
0.842451 0.00048628
0.85114 0.000511032
0.85983 0.000560068
0.868678 0.000646938
0.877527 0.000788158
0.886538 0.000981477
0.895549 0.00121463
0.904725 0.00141518
0.913901 0.00156929
0.923246 0.00161022
0.93259 0.00158278
0.942106 0.0014752
0.951622 0.00131095
0.961313 0.00113484
0.971003 0.000923947
0.980872 0.000761249
0.99074 0.000600253
1.00079 0.000475077
1.01084 0.000383099
1.02107 0.000302177
1.03131 0.000255155
1.04173 0.000222065
1.05215 0.000206702
1.06276 0.000198466
1.07337 0.000197264
1.08418 0.000196736
1.09499 0.000201202
1.10599 0.000202555
1.117 0.000207867
1.1282 0.000208283
1.13941 0.000210509
1.15082 0.000209912
1.16224 0.000210031
1.17386 0.000210433
1.18548 0.000210319
1.19731 0.000212125
1.20915 0.000211612
1.2212 0.000211692
1.23325 0.000207598
1.24553 0.000201302
1.2578 0.00019144
1.2703 0.00017712
1.2828 0.000163532
1.29552 0.000144615
1.30825 0.000128003
1.32121 0.000109661
1.33417 9.46681e-05
1.34737 8.4032e-05
1.36057 7.61398e-05
1.37401 7.21318e-05
1.38745 6.90996e-05
1.40114 6.7246e-05
1.41483 6.57085e-05
1.42877 6.4153e-05
1.4427 6.27357e-05
1.4569 6.06857e-05
1.47109 5.90621e-05
1.48555 5.70681e-05
1.5 5.59156e-05
1.50339 5.56283e-05
1.50679 5.52037e-05
1.5136 5.49793e-05
1.52041 5.47256e-05
1.52046 5.47266e-05
1.5205 5.47254e-05
1.52751 5.4903e-05
1.53451 5.49748e-05
1.53809 5.50328e-05
1.54167 5.50725e-05
1.54524 5.50763e-05
1.54882 5.50678e-05
1.55612 5.50435e-05
1.56343 5.5013e-05
1.56363 5.50127e-05
1.56383 5.50118e-05
1.57109 5.50368e-05
1.57835 5.50852e-05
1.58265 5.51236e-05
1.58696 5.51656e-05
1.59027 5.52245e-05
1.59359 5.5301e-05
1.60137 5.54602e-05
1.60915 5.56244e-05
1.61013 5.56407e-05
1.61111 5.56513e-05
1.61807 5.59545e-05
1.62504 5.62222e-05
1.6307 5.63952e-05
1.63636 5.64884e-05
1.63881 5.66326e-05
1.64127 5.67387e-05
1.64955 5.71172e-05
1.65784 5.72411e-05
1.66031 5.7307e-05
1.66279 5.73049e-05
1.66878 5.76872e-05
1.67476 5.78585e-05
1.68262 5.81392e-05
1.69048 5.81268e-05
1.69126 5.81879e-05
1.69205 5.82121e-05
1.70087 5.87019e-05
1.7097 5.86949e-05
1.7146 5.87746e-05
1.71951 5.85704e-05
1.72362 5.88136e-05
1.72772 5.87517e-05
1.73693 5.89123e-05
1.74613 5.81465e-05
1.74806 5.80999e-05
1.75 5.78896e-05
1.75746 5.79187e-05
1.76493 5.70723e-05
1.77349 5.66129e-05
1.78205 5.52681e-05
1.78309 5.52377e-05
1.78412 5.50586e-05
1.79393 5.46858e-05
1.80373 5.30197e-05
1.80976 5.26008e-05
1.81579 5.16163e-05
1.81977 5.13615e-05
1.82375 5.05726e-05
1.83397 5.01476e-05
1.8442 4.84237e-05
1.84777 4.83357e-05
1.85135 4.8075e-05
1.85821 4.78981e-05
1.86508 4.72031e-05
1.87574 4.71078e-05
1.8864 4.66438e-05
1.88764 4.66503e-05
1.88889 4.664e-05
1.89853 4.66783e-05
1.90818 4.65234e-05
1.91837 4.66028e-05
1.92857 4.65928e-05
1.92949 4.65984e-05
1.93041 4.65927e-05
1.94177 4.67199e-05
1.95312 4.67761e-05
1.96186 4.68779e-05
1.97059 4.69521e-05
1.97345 4.6983e-05
1.97632 4.70044e-05
1.98816 4.71574e-05
2 4.72743e-05
