# Force coefficients
# liftDir     : (0.000000e+00 0.000000e+00 1.000000e+00)
# dragDir     : (1.000000e+00 0.000000e+00 0.000000e+00)
# pitchAxis   : (0.000000e+00 1.000000e+00 0.000000e+00)
# magUInf     : 1.000000e+00
# lRef        : 1.000000e+00
# Aref        : 1.000000e+00
# CofR        : (7.500000e+00 0.000000e+00 0.000000e+00)
#
# Time        	Cm            	Cd            	Cl            	Cl(f)         	Cl(r)         
1             	2.309188e-04	8.326837e-01	2.481292e-04	3.549833e-04	-1.068542e-04
2             	4.239163e-04	1.358413e+00	3.105630e-03	1.976731e-03	1.128898e-03
3             	2.978258e-04	1.859407e+00	5.132190e-03	2.863921e-03	2.268269e-03
4             	-3.053861e-04	2.042433e+00	5.589595e-03	2.489411e-03	3.100183e-03
5             	-8.167578e-04	1.940277e+00	4.569648e-03	1.468066e-03	3.101582e-03
6             	-1.132937e-03	1.689857e+00	3.862803e-03	7.984642e-04	3.064339e-03
7             	-1.104233e-03	1.417826e+00	4.774017e-03	1.282775e-03	3.491242e-03
8             	-7.977188e-04	1.212540e+00	7.542784e-03	2.973673e-03	4.569111e-03
9             	-4.133230e-04	1.105390e+00	1.149944e-02	5.336399e-03	6.163045e-03
10            	-1.166163e-04	1.080477e+00	1.565879e-02	7.712778e-03	7.946010e-03
11            	8.875970e-05	1.101549e+00	1.932793e-02	9.752726e-03	9.575207e-03
12            	1.608709e-04	1.135824e+00	2.261577e-02	1.146876e-02	1.114702e-02
13            	7.742061e-05	1.160815e+00	2.578698e-02	1.297091e-02	1.281607e-02
14            	-1.094152e-04	1.164199e+00	2.946419e-02	1.462268e-02	1.484151e-02
15            	-4.103411e-04	1.148665e+00	3.456470e-02	1.687201e-02	1.769269e-02
16            	-8.445490e-04	1.121154e+00	4.198557e-02	2.014824e-02	2.183734e-02
17            	-1.388514e-03	1.087121e+00	5.185476e-02	2.453886e-02	2.731589e-02
18            	-2.099109e-03	1.053160e+00	6.410263e-02	2.995221e-02	3.415042e-02
19            	-2.993795e-03	1.026964e+00	7.862941e-02	3.632091e-02	4.230850e-02
20            	-4.088409e-03	1.010838e+00	9.494644e-02	4.338481e-02	5.156163e-02
21            	-5.420469e-03	1.004661e+00	1.122727e-01	5.071587e-02	6.155681e-02
22            	-7.029311e-03	1.004537e+00	1.297744e-01	5.785789e-02	7.191651e-02
23            	-8.903978e-03	1.008073e+00	1.467692e-01	6.448062e-02	8.228857e-02
24            	-1.109235e-02	1.012361e+00	1.633957e-01	7.060549e-02	9.279019e-02
25            	-1.360589e-02	1.014943e+00	1.799454e-01	7.636681e-02	1.035786e-01
26            	-1.637022e-02	1.016232e+00	1.967565e-01	8.200805e-02	1.147485e-01
27            	-1.919443e-02	1.016940e+00	2.140921e-01	8.785164e-02	1.262405e-01
28            	-2.179294e-02	1.017829e+00	2.326192e-01	9.451668e-02	1.381026e-01
29            	-2.422994e-02	1.019354e+00	2.519184e-01	1.017292e-01	1.501891e-01
30            	-2.622921e-02	1.021294e+00	2.725355e-01	1.100386e-01	1.624970e-01
31            	-2.783119e-02	1.023265e+00	2.948010e-01	1.195693e-01	1.752317e-01
32            	-2.899782e-02	1.024860e+00	3.193558e-01	1.306801e-01	1.886757e-01
33            	-2.980807e-02	1.026094e+00	3.463001e-01	1.433420e-01	2.029581e-01
34            	-3.032028e-02	1.027370e+00	3.754794e-01	1.574194e-01	2.180600e-01
35            	-3.064903e-02	1.029049e+00	4.063465e-01	1.725242e-01	2.338223e-01
36            	-3.082399e-02	1.031055e+00	4.382854e-01	1.883187e-01	2.499667e-01
37            	-3.093544e-02	1.033575e+00	4.704078e-01	2.042685e-01	2.661394e-01
38            	-3.114181e-02	1.036196e+00	5.025119e-01	2.201141e-01	2.823977e-01
39            	-3.167600e-02	1.038832e+00	5.341171e-01	2.353826e-01	2.987346e-01
40            	-3.270859e-02	1.041629e+00	5.648165e-01	2.496996e-01	3.151168e-01
41            	-3.423533e-02	1.044412e+00	5.940300e-01	2.627797e-01	3.312503e-01
42            	-3.625532e-02	1.047347e+00	6.220587e-01	2.747740e-01	3.472847e-01
43            	-3.869128e-02	1.050315e+00	6.484810e-01	2.855492e-01	3.629318e-01
44            	-4.140151e-02	1.053087e+00	6.730522e-01	2.951246e-01	3.779276e-01
45            	-4.427282e-02	1.055317e+00	6.953985e-01	3.034264e-01	3.919721e-01
46            	-4.691407e-02	1.056560e+00	7.150386e-01	3.106052e-01	4.044333e-01
47            	-4.906310e-02	1.056453e+00	7.317102e-01	3.167920e-01	4.149182e-01
48            	-5.095285e-02	1.055303e+00	7.453548e-01	3.217246e-01	4.236302e-01
49            	-5.297565e-02	1.053241e+00	7.564936e-01	3.252711e-01	4.312224e-01
50            	-5.541625e-02	1.050939e+00	7.659053e-01	3.275364e-01	4.383689e-01
51            	-5.814640e-02	1.049359e+00	7.737811e-01	3.287441e-01	4.450369e-01
52            	-6.090780e-02	1.048795e+00	7.796025e-01	3.288935e-01	4.507091e-01
53            	-6.344129e-02	1.049141e+00	7.829871e-01	3.280523e-01	4.549348e-01
54            	-6.566974e-02	1.049944e+00	7.839066e-01	3.262836e-01	4.576230e-01
55            	-6.758751e-02	1.050928e+00	7.827830e-01	3.238040e-01	4.589790e-01
56            	-6.938335e-02	1.052654e+00	7.800785e-01	3.206559e-01	4.594226e-01
57            	-7.120638e-02	1.054806e+00	7.761093e-01	3.168483e-01	4.592610e-01
58            	-7.315064e-02	1.056944e+00	7.713917e-01	3.125452e-01	4.588465e-01
59            	-7.525505e-02	1.058749e+00	7.667512e-01	3.081205e-01	4.586306e-01
60            	-7.761223e-02	1.060824e+00	7.622748e-01	3.035252e-01	4.587496e-01
61            	-8.022142e-02	1.063512e+00	7.579792e-01	2.987682e-01	4.592110e-01
62            	-8.299833e-02	1.066593e+00	7.538722e-01	2.939378e-01	4.599344e-01
63            	-8.588466e-02	1.069947e+00	7.502431e-01	2.892369e-01	4.610062e-01
64            	-8.877013e-02	1.073613e+00	7.467050e-01	2.845824e-01	4.621226e-01
65            	-9.148805e-02	1.077492e+00	7.425481e-01	2.797860e-01	4.627621e-01
66            	-9.402158e-02	1.081166e+00	7.377966e-01	2.748767e-01	4.629199e-01
67            	-9.630423e-02	1.084142e+00	7.326961e-01	2.700438e-01	4.626523e-01
68            	-9.834262e-02	1.086139e+00	7.273982e-01	2.653565e-01	4.620417e-01
69            	-1.001992e-01	1.086994e+00	7.219099e-01	2.607557e-01	4.611542e-01
70            	-1.018808e-01	1.086640e+00	7.166104e-01	2.564244e-01	4.601860e-01
71            	-1.033359e-01	1.085223e+00	7.118934e-01	2.526108e-01	4.592826e-01
72            	-1.045747e-01	1.083073e+00	7.075239e-01	2.491872e-01	4.583367e-01
73            	-1.055695e-01	1.080795e+00	7.033166e-01	2.460888e-01	4.572279e-01
74            	-1.063000e-01	1.078856e+00	6.989504e-01	2.431752e-01	4.557751e-01
75            	-1.067404e-01	1.077874e+00	6.943124e-01	2.404158e-01	4.538966e-01
76            	-1.069173e-01	1.078786e+00	6.891734e-01	2.376694e-01	4.515040e-01
77            	-1.068463e-01	1.082134e+00	6.830730e-01	2.346902e-01	4.483828e-01
78            	-1.066099e-01	1.088151e+00	6.754745e-01	2.311273e-01	4.443472e-01
79            	-1.063390e-01	1.096689e+00	6.661580e-01	2.267400e-01	4.394180e-01
80            	-1.060799e-01	1.107028e+00	6.552869e-01	2.215635e-01	4.337234e-01
81            	-1.058366e-01	1.118192e+00	6.431499e-01	2.157383e-01	4.274116e-01
82            	-1.055668e-01	1.129803e+00	6.301303e-01	2.094984e-01	4.206319e-01
83            	-1.051997e-01	1.141924e+00	6.167159e-01	2.031583e-01	4.135576e-01
84            	-1.046872e-01	1.154773e+00	6.032842e-01	1.969549e-01	4.063293e-01
85            	-1.040209e-01	1.168638e+00	5.900504e-01	1.910043e-01	3.990461e-01
86            	-1.031674e-01	1.183511e+00	5.773068e-01	1.854860e-01	3.918208e-01
87            	-1.020522e-01	1.199004e+00	5.659093e-01	1.809025e-01	3.850068e-01
88            	-1.005971e-01	1.214454e+00	5.566402e-01	1.777230e-01	3.789172e-01
89            	-9.879821e-02	1.229311e+00	5.495089e-01	1.759563e-01	3.735527e-01
90            	-9.666159e-02	1.243188e+00	5.439314e-01	1.753041e-01	3.686273e-01
91            	-9.424162e-02	1.255290e+00	5.394937e-01	1.755052e-01	3.639885e-01
92            	-9.164273e-02	1.265162e+00	5.359333e-01	1.763239e-01	3.596094e-01
93            	-8.899646e-02	1.272610e+00	5.330515e-01	1.775293e-01	3.555222e-01
94            	-8.644957e-02	1.277409e+00	5.306143e-01	1.788576e-01	3.517567e-01
95            	-8.410283e-02	1.279503e+00	5.284418e-01	1.801181e-01	3.483237e-01
96            	-8.203849e-02	1.279035e+00	5.263821e-01	1.811526e-01	3.452296e-01
97            	-8.033295e-02	1.276224e+00	5.242755e-01	1.818048e-01	3.424707e-01
98            	-7.905308e-02	1.271262e+00	5.219511e-01	1.819225e-01	3.400286e-01
99            	-7.823614e-02	1.264432e+00	5.193788e-01	1.814533e-01	3.379256e-01
100           	-7.787347e-02	1.256013e+00	5.165821e-01	1.804176e-01	3.361645e-01
101           	-7.794471e-02	1.246347e+00	5.136790e-01	1.788948e-01	3.347842e-01
102           	-7.840741e-02	1.235796e+00	5.108373e-01	1.770112e-01	3.338261e-01
103           	-7.919360e-02	1.224807e+00	5.082940e-01	1.749534e-01	3.333406e-01
104           	-8.019261e-02	1.213797e+00	5.064588e-01	1.730368e-01	3.334220e-01
105           	-8.129656e-02	1.203124e+00	5.056151e-01	1.715110e-01	3.341041e-01
106           	-8.242029e-02	1.193156e+00	5.058556e-01	1.705075e-01	3.353481e-01
107           	-8.348767e-02	1.184158e+00	5.071730e-01	1.700989e-01	3.370742e-01
108           	-8.444414e-02	1.176323e+00	5.094864e-01	1.702991e-01	3.391873e-01
109           	-8.526663e-02	1.169886e+00	5.126079e-01	1.710373e-01	3.415706e-01
110           	-8.596018e-02	1.164935e+00	5.164270e-01	1.722533e-01	3.441737e-01
111           	-8.653968e-02	1.161390e+00	5.209343e-01	1.739275e-01	3.470068e-01
112           	-8.701813e-02	1.159105e+00	5.261239e-01	1.760438e-01	3.500801e-01
113           	-8.741699e-02	1.157878e+00	5.319083e-01	1.785372e-01	3.533712e-01
114           	-8.775186e-02	1.157503e+00	5.381863e-01	1.813413e-01	3.568450e-01
115           	-8.804467e-02	1.157741e+00	5.447909e-01	1.843508e-01	3.604401e-01
116           	-8.833217e-02	1.158381e+00	5.514868e-01	1.874112e-01	3.640755e-01
117           	-8.859587e-02	1.159256e+00	5.581511e-01	1.904797e-01	3.676714e-01
118           	-8.883781e-02	1.160194e+00	5.645549e-01	1.934397e-01	3.711153e-01
119           	-8.905379e-02	1.161037e+00	5.705363e-01	1.962143e-01	3.743219e-01
120           	-8.923714e-02	1.161616e+00	5.759998e-01	1.987628e-01	3.772371e-01
121           	-8.935662e-02	1.161816e+00	5.808946e-01	2.010907e-01	3.798039e-01
122           	-8.941256e-02	1.161554e+00	5.851343e-01	2.031546e-01	3.819797e-01
123           	-8.939065e-02	1.160813e+00	5.887007e-01	2.049597e-01	3.837410e-01
124           	-8.926861e-02	1.159615e+00	5.916687e-01	2.065658e-01	3.851030e-01
125           	-8.901542e-02	1.158047e+00	5.942024e-01	2.080858e-01	3.861166e-01
126           	-8.860188e-02	1.156222e+00	5.964201e-01	2.096082e-01	3.868119e-01
127           	-8.801636e-02	1.154198e+00	5.984438e-01	2.112055e-01	3.872383e-01
128           	-8.724928e-02	1.152071e+00	6.004426e-01	2.129720e-01	3.874706e-01
129           	-8.631483e-02	1.149951e+00	6.025568e-01	2.149636e-01	3.875933e-01
130           	-8.522490e-02	1.147941e+00	6.049070e-01	2.172286e-01	3.876784e-01
131           	-8.400362e-02	1.146091e+00	6.075817e-01	2.197872e-01	3.877945e-01
132           	-8.269066e-02	1.144396e+00	6.106525e-01	2.226356e-01	3.880169e-01
133           	-8.132860e-02	1.142821e+00	6.141945e-01	2.257687e-01	3.884259e-01
134           	-7.995957e-02	1.141310e+00	6.182217e-01	2.291513e-01	3.890704e-01
135           	-7.862350e-02	1.139791e+00	6.226906e-01	2.327218e-01	3.899688e-01
136           	-7.735090e-02	1.138259e+00	6.275331e-01	2.364157e-01	3.911175e-01
137           	-7.616605e-02	1.136703e+00	6.326818e-01	2.401748e-01	3.925069e-01
138           	-7.508552e-02	1.135134e+00	6.380103e-01	2.439196e-01	3.940907e-01
139           	-7.412482e-02	1.133542e+00	6.433900e-01	2.475702e-01	3.958198e-01
140           	-7.327533e-02	1.131946e+00	6.487081e-01	2.510787e-01	3.976294e-01
141           	-7.254625e-02	1.130343e+00	6.538171e-01	2.543623e-01	3.994548e-01
142           	-7.191620e-02	1.128724e+00	6.586612e-01	2.574144e-01	4.012468e-01
143           	-7.137758e-02	1.127105e+00	6.631242e-01	2.601845e-01	4.029397e-01
144           	-7.090415e-02	1.125478e+00	6.672111e-01	2.627014e-01	4.045097e-01
145           	-7.048314e-02	1.123832e+00	6.709348e-01	2.649843e-01	4.059506e-01
146           	-7.010530e-02	1.122201e+00	6.742832e-01	2.670363e-01	4.072469e-01
147           	-6.976785e-02	1.120589e+00	6.772478e-01	2.688560e-01	4.083917e-01
148           	-6.947004e-02	1.119020e+00	6.798029e-01	2.704314e-01	4.093715e-01
149           	-6.920404e-02	1.117503e+00	6.819558e-01	2.717739e-01	4.101820e-01
150           	-6.896231e-02	1.116037e+00	6.837222e-01	2.728988e-01	4.108234e-01
151           	-6.873357e-02	1.114669e+00	6.851242e-01	2.738285e-01	4.112957e-01
152           	-6.851303e-02	1.113394e+00	6.862242e-01	2.745991e-01	4.116251e-01
153           	-6.830668e-02	1.112237e+00	6.870372e-01	2.752119e-01	4.118253e-01
154           	-6.811963e-02	1.111201e+00	6.876088e-01	2.756848e-01	4.119241e-01
155           	-6.794263e-02	1.110323e+00	6.880092e-01	2.760619e-01	4.119472e-01
156           	-6.776784e-02	1.109577e+00	6.882308e-01	2.763475e-01	4.118832e-01
157           	-6.759018e-02	1.108954e+00	6.882571e-01	2.765384e-01	4.117187e-01
158           	-6.741056e-02	1.108460e+00	6.880846e-01	2.766318e-01	4.114529e-01
159           	-6.723299e-02	1.108070e+00	6.877272e-01	2.766306e-01	4.110966e-01
160           	-6.705625e-02	1.107766e+00	6.871921e-01	2.765398e-01	4.106523e-01
161           	-6.688315e-02	1.107514e+00	6.864898e-01	2.763617e-01	4.101280e-01
162           	-6.671579e-02	1.107316e+00	6.856704e-01	2.761194e-01	4.095510e-01
163           	-6.655905e-02	1.107166e+00	6.848234e-01	2.758526e-01	4.089708e-01
164           	-6.641566e-02	1.107066e+00	6.840025e-01	2.755856e-01	4.084169e-01
165           	-6.629527e-02	1.107032e+00	6.832104e-01	2.753099e-01	4.079005e-01
166           	-6.620716e-02	1.107090e+00	6.824425e-01	2.750141e-01	4.074284e-01
167           	-6.615021e-02	1.107282e+00	6.816731e-01	2.746864e-01	4.069868e-01
168           	-6.612446e-02	1.107608e+00	6.809168e-01	2.743339e-01	4.065829e-01
169           	-6.612758e-02	1.108107e+00	6.801404e-01	2.739426e-01	4.061978e-01
170           	-6.615981e-02	1.108787e+00	6.793390e-01	2.735097e-01	4.058293e-01
171           	-6.621714e-02	1.109640e+00	6.784992e-01	2.730325e-01	4.054668e-01
172           	-6.629068e-02	1.110674e+00	6.776100e-01	2.725143e-01	4.050957e-01
173           	-6.637362e-02	1.111850e+00	6.766905e-01	2.719716e-01	4.047189e-01
174           	-6.646016e-02	1.113144e+00	6.757325e-01	2.714061e-01	4.043264e-01
175           	-6.654875e-02	1.114553e+00	6.747067e-01	2.708046e-01	4.039021e-01
176           	-6.663637e-02	1.116056e+00	6.735887e-01	2.701580e-01	4.034307e-01
177           	-6.672194e-02	1.117653e+00	6.723348e-01	2.694455e-01	4.028893e-01
178           	-6.680557e-02	1.119350e+00	6.709127e-01	2.686508e-01	4.022619e-01
179           	-6.688876e-02	1.121127e+00	6.693174e-01	2.677699e-01	4.015475e-01
180           	-6.697455e-02	1.122980e+00	6.675524e-01	2.668016e-01	4.007507e-01
181           	-6.706585e-02	1.124909e+00	6.656334e-01	2.657509e-01	3.998825e-01
182           	-6.716529e-02	1.126939e+00	6.635927e-01	2.646311e-01	3.989617e-01
183           	-6.727733e-02	1.129084e+00	6.614632e-01	2.634543e-01	3.980089e-01
184           	-6.740636e-02	1.131355e+00	6.592706e-01	2.622289e-01	3.970417e-01
185           	-6.755215e-02	1.133727e+00	6.570401e-01	2.609679e-01	3.960722e-01
186           	-6.771627e-02	1.136183e+00	6.547831e-01	2.596753e-01	3.951078e-01
187           	-6.789999e-02	1.138702e+00	6.524972e-01	2.583486e-01	3.941486e-01
188           	-6.810393e-02	1.141268e+00	6.501929e-01	2.569925e-01	3.932004e-01
189           	-6.832958e-02	1.143885e+00	6.478890e-01	2.556149e-01	3.922741e-01
190           	-6.857522e-02	1.146530e+00	6.455878e-01	2.542187e-01	3.913691e-01
191           	-6.883691e-02	1.149215e+00	6.433056e-01	2.528159e-01	3.904897e-01
192           	-6.911644e-02	1.151974e+00	6.410685e-01	2.514178e-01	3.896507e-01
193           	-6.940507e-02	1.154780e+00	6.388970e-01	2.500434e-01	3.888535e-01
194           	-6.969081e-02	1.157619e+00	6.367947e-01	2.487065e-01	3.880882e-01
195           	-6.996951e-02	1.160533e+00	6.347477e-01	2.474043e-01	3.873434e-01
196           	-7.023589e-02	1.163502e+00	6.327504e-01	2.461393e-01	3.866111e-01
197           	-7.047647e-02	1.166481e+00	6.308029e-01	2.449250e-01	3.858779e-01
198           	-7.068690e-02	1.169458e+00	6.289034e-01	2.437648e-01	3.851386e-01
199           	-7.086372e-02	1.172394e+00	6.270551e-01	2.426639e-01	3.843913e-01
200           	-7.100709e-02	1.175240e+00	6.252726e-01	2.416292e-01	3.836434e-01
201           	-7.111921e-02	1.177920e+00	6.235401e-01	2.406508e-01	3.828893e-01
202           	-7.120428e-02	1.180368e+00	6.218430e-01	2.397172e-01	3.821258e-01
203           	-7.126920e-02	1.182498e+00	6.201654e-01	2.388135e-01	3.813519e-01
204           	-7.132247e-02	1.184251e+00	6.185061e-01	2.379306e-01	3.805755e-01
205           	-7.137113e-02	1.185576e+00	6.168764e-01	2.370670e-01	3.798093e-01
206           	-7.142185e-02	1.186506e+00	6.152395e-01	2.361979e-01	3.790416e-01
207           	-7.147813e-02	1.187123e+00	6.135752e-01	2.353094e-01	3.782657e-01
208           	-7.154382e-02	1.187477e+00	6.118545e-01	2.343834e-01	3.774711e-01
209           	-7.161784e-02	1.187640e+00	6.100067e-01	2.333855e-01	3.766212e-01
210           	-7.169806e-02	1.187662e+00	6.080031e-01	2.323035e-01	3.756996e-01
211           	-7.178051e-02	1.187585e+00	6.058274e-01	2.311332e-01	3.746942e-01
212           	-7.186025e-02	1.187433e+00	6.034843e-01	2.298819e-01	3.736024e-01
213           	-7.192654e-02	1.187206e+00	6.010103e-01	2.285786e-01	3.724317e-01
214           	-7.197514e-02	1.186939e+00	5.984651e-01	2.272574e-01	3.712077e-01
215           	-7.200062e-02	1.186653e+00	5.958972e-01	2.259480e-01	3.699492e-01
216           	-7.200082e-02	1.186347e+00	5.933891e-01	2.246937e-01	3.686954e-01
217           	-7.197648e-02	1.186018e+00	5.910085e-01	2.235278e-01	3.674807e-01
218           	-7.192595e-02	1.185696e+00	5.888074e-01	2.224778e-01	3.663297e-01
219           	-7.185628e-02	1.185407e+00	5.868127e-01	2.215501e-01	3.652626e-01
220           	-7.177735e-02	1.185142e+00	5.850660e-01	2.207556e-01	3.643103e-01
221           	-7.169528e-02	1.184919e+00	5.835685e-01	2.200890e-01	3.634795e-01
222           	-7.161409e-02	1.184761e+00	5.822971e-01	2.195345e-01	3.627626e-01
223           	-7.154283e-02	1.184636e+00	5.812515e-01	2.190829e-01	3.621686e-01
224           	-7.148982e-02	1.184544e+00	5.804014e-01	2.187109e-01	3.616905e-01
225           	-7.145791e-02	1.184511e+00	5.796955e-01	2.183899e-01	3.613057e-01
226           	-7.144915e-02	1.184538e+00	5.790939e-01	2.180978e-01	3.609961e-01
227           	-7.146314e-02	1.184622e+00	5.785560e-01	2.178149e-01	3.607411e-01
228           	-7.149724e-02	1.184762e+00	5.780531e-01	2.175293e-01	3.605238e-01
229           	-7.154847e-02	1.184951e+00	5.775656e-01	2.172343e-01	3.603312e-01
230           	-7.161388e-02	1.185175e+00	5.770857e-01	2.169290e-01	3.601567e-01
231           	-7.169162e-02	1.185430e+00	5.766065e-01	2.166116e-01	3.599949e-01
232           	-7.177956e-02	1.185711e+00	5.761129e-01	2.162769e-01	3.598360e-01
233           	-7.187528e-02	1.186018e+00	5.755923e-01	2.159209e-01	3.596714e-01
234           	-7.197591e-02	1.186344e+00	5.750430e-01	2.155456e-01	3.594974e-01
235           	-7.208041e-02	1.186689e+00	5.744612e-01	2.151502e-01	3.593110e-01
236           	-7.218816e-02	1.187050e+00	5.738489e-01	2.147363e-01	3.591126e-01
237           	-7.229926e-02	1.187440e+00	5.732247e-01	2.143131e-01	3.589116e-01
238           	-7.240736e-02	1.187835e+00	5.725986e-01	2.138919e-01	3.587067e-01
239           	-7.251332e-02	1.188243e+00	5.719818e-01	2.134776e-01	3.585042e-01
240           	-7.261656e-02	1.188673e+00	5.713702e-01	2.130685e-01	3.583017e-01
241           	-7.271548e-02	1.189154e+00	5.707606e-01	2.126648e-01	3.580958e-01
